Time	Channel A	Channel B	Channel C
(us)	(V)	(mV)	(mV)

-4.49999956	0.00000000	18.97145000	4.73671200
-4.29999957	0.00000000	18.97145000	4.73671200
-4.09999958	0.00000000	18.97145000	4.73671200
-3.89999959	0.00000000	18.97145000	4.73671200
-3.69999960	0.00000000	18.97145000	4.73671200
-3.49999962	0.00000000	18.97145000	4.73671200
-3.29999963	0.00000000	18.97145000	4.73671200
-3.09999964	0.00000000	18.97145000	4.73671200
-2.89999965	0.00000000	18.97145000	4.73671200
-2.69999966	0.00000000	18.97145000	4.73671200
-2.49999968	0.00000000	18.97145000	4.73671200
-2.29999969	0.00000000	18.97145000	4.73671200
-2.09999970	0.00000000	18.97145000	4.73671200
-1.89999971	0.00000000	18.97145000	4.73671200
-1.69999972	0.00000000	18.97145000	4.73671200
-1.49999973	0.00000000	18.97145000	4.73671200
-1.29999975	0.00000000	18.97145000	4.73671200
-1.09999976	0.00000000	18.97145000	4.73671200
-0.89999977	0.00000000	18.97145000	4.73671200
-0.69999978	0.00000000	18.97145000	4.73671200
-0.49999979	0.00000000	18.97145000	4.73671200
-0.29999981	0.15871060	18.97145000	4.73671200
-0.09999982	0.63668800	18.97145000	4.73671200
0.10000017	0.95533960	18.97145000	4.73671200
0.30000016	0.95533960	18.97145000	4.73671200
0.50000015	0.79601380	18.97145000	4.73671200
0.70000013	0.31803640	18.97145000	4.73671200
0.90000012	-0.47736220	18.97145000	4.73671200
1.10000011	-1.43331700	18.97145000	4.73671200
1.30000010	-2.38927200	18.97145000	4.73671200
1.50000009	-2.70792300	18.97145000	4.73671200
1.70000008	-2.54859700	18.97145000	4.73671200
1.90000006	-1.43331700	18.97145000	4.73671200
2.10000005	0.31803640	18.97145000	4.73671200
2.30000004	2.54859700	18.97145000	4.73671200
2.50000003	4.30056600	18.97145000	4.73671200
2.70000002	5.25652100	18.97145000	4.69365100
2.90000000	4.93786900	18.97145000	4.31840500
3.09999999	3.02657500	18.97145000	3.57406500
3.29999998	0.00000000	18.97145000	3.19881900
3.49999997	-3.34522600	18.97145000	3.19881900
3.69999996	-6.21247500	18.97145000	3.57406500
3.89999994	-7.96444400	18.97145000	4.31840500
4.09999993	-7.48646600	18.97145000	4.69365100
4.29999992	-5.25652100	18.97145000	4.73671200
4.49999991	-1.43331700	18.97145000	4.73671200
4.69999990	3.02657500	18.97145000	4.73671200
4.89999989	6.84916400	18.97145000	4.73671200
5.09999987	9.23905000	18.97145000	4.69365100
5.29999986	9.07972400	18.97145000	4.31840500
5.49999985	6.84916400	18.97145000	3.57406500
5.69999984	2.70792300	18.92839000	3.19881900
5.89999983	-2.07062000	18.59621000	3.19881900
6.09999981	-6.37180100	18.22711000	3.57406500
6.29999980	-8.92039900	18.59621000	4.31840500
6.49999979	-9.39837600	18.92839000	4.69365100
6.69999978	-7.48646600	18.97145000	4.73671200
6.89999977	-3.66326300	18.97145000	4.73671200
7.09999975	0.63668800	18.97145000	4.73671200
7.29999974	4.61921700	18.97145000	4.73671200
7.49999973	7.16781500	18.97145000	4.69365100
7.69999972	7.80511800	18.97145000	4.31840500
7.89999971	6.37180100	18.92839000	3.57406500
8.09999970	3.66326300	18.59621000	3.19881900
8.29999968	0.31803640	18.22711000	3.15575800
8.49999967	-2.70792300	18.59621000	3.19881900
8.69999966	-4.61921700	18.92839000	3.57406500
8.89999965	-5.25652100	18.97145000	4.31840500
9.09999964	-4.45989200	18.97145000	4.69365100
9.29999962	-2.86724900	18.97145000	4.73671200
9.49999961	-0.79601380	18.97145000	4.73671200
9.69999960	0.95533960	18.97145000	4.73671200
9.89999959	2.07062000	18.97145000	4.73671200
10.09999958	2.54859700	18.97145000	4.73671200
10.29999956	2.22994600	18.97145000	4.73671200
10.49999955	1.43331700	18.97145000	4.69365100
10.69999954	0.63668800	18.97145000	4.36146600
10.89999953	-0.15871060	18.97145000	3.99237200
11.09999952	-0.79601380	18.97145000	4.36146600
11.29999951	-0.95533960	18.97145000	4.69365100
11.49999949	-0.95533960	18.97145000	4.73671200
11.69999948	-0.79601380	18.97145000	4.73671200
11.89999947	-0.47736220	18.97145000	4.73671200
12.09999946	-0.15871060	18.97145000	4.73671200
12.29999945	-0.15871060	18.97145000	4.73671200
12.49999943	-0.15871060	18.97145000	4.73671200
12.69999942	0.00000000	18.97145000	4.73671200
12.89999941	0.00000000	18.97145000	4.73671200
13.09999940	0.00000000	18.97145000	4.69365100
13.29999939	0.00000000	18.97145000	4.36146600
13.49999937	0.00000000	18.97145000	3.94931100
13.69999936	0.00000000	18.97145000	3.98622000
13.89999935	0.00000000	18.97145000	3.94931100
14.09999934	-0.15871060	18.97145000	4.36146600
14.29999933	-0.15871060	18.97145000	4.69365100
14.49999932	-0.15871060	18.97145000	4.73671200
14.69999930	-0.15871060	18.97145000	4.73671200
14.89999929	0.00000000	18.97145000	4.73671200
15.09999928	0.00000000	18.97145000	4.73671200
15.29999927	0.00000000	18.97145000	4.73671200
15.49999926	0.00000000	18.97145000	4.69365100
15.69999924	0.00000000	18.92839000	4.36146600
15.89999923	0.00000000	18.59621000	3.99237200
16.09999922	0.00000000	18.22711000	4.36146600
16.29999921	0.00000000	18.59621000	4.69365100
16.49999920	-0.15871060	18.92839000	4.73671200
16.69999919	-0.15871060	18.97145000	4.73671200
16.89999917	0.00000000	18.97145000	4.73671200
17.09999916	0.00000000	19.01451000	4.73671200
17.29999915	0.00000000	19.38976000	4.73671200
17.49999914	0.00000000	20.13410000	4.73671200
17.69999913	0.00000000	20.46014000	4.73671200
17.89999911	0.00000000	20.08489000	4.73671200
18.09999910	0.00000000	18.92839000	4.73671200
18.29999909	0.00000000	17.39050000	4.73671200
18.49999908	0.00000000	15.85261000	4.73671200
18.69999907	0.00000000	14.64690000	4.73671200
18.89999905	0.00000000	13.89641000	4.73671200
19.09999904	0.00000000	13.57652000	4.73671200
19.29999903	-0.15871060	14.78223000	4.73671200
19.49999902	0.00000000	17.48277000	4.69365100
19.69999901	0.00000000	20.97072000	4.36146600
19.89999900	0.00000000	24.87697000	3.99237200
20.09999898	0.00000000	28.27879000	4.31840500
20.29999897	0.00000000	30.17962000	4.31840500
20.49999896	0.00000000	29.34916000	3.99237200
20.69999895	0.00000000	25.85507000	4.36146600
20.89999894	0.00000000	19.99877000	4.69365100
21.09999892	0.00000000	12.64764000	4.73671200
21.29999891	0.00000000	5.29650500	4.73671200
21.49999890	0.00000000	-0.42445860	4.69365100
21.69999889	0.00000000	-2.61441900	4.36146600
21.89999888	0.00000000	0.54749010	3.94931100
22.09999886	0.00000000	9.01205700	3.94315900
22.29999885	0.00000000	20.64468000	3.53100400
22.49999884	0.00000000	33.02165000	3.24803100
22.69999883	0.00000000	43.81151000	3.57406500
22.89999882	0.00000000	49.87081000	4.31840500
23.09999881	0.00000000	49.02805000	4.73671200
23.29999879	0.00000000	40.47121000	5.15501900
23.49999878	0.00000000	25.81201000	5.89320800
23.69999877	0.00000000	8.37229300	6.26845500
23.89999876	0.00000000	-8.24311000	6.31151500
24.09999875	0.00000000	-20.47859000	6.26845500
24.29999873	0.00000000	-24.24335000	5.85014700
24.49999872	0.00000000	-17.69193000	4.68750000
24.69999871	0.00000000	-2.61441900	3.15575800
24.89999870	0.00000000	17.94414000	1.57480300
25.09999869	0.00000000	39.95448000	0.04306102
25.29999867	0.00000000	58.42765000	-1.06422200
25.49999866	0.00000000	68.38705000	-1.06422200
25.69999865	0.00000000	66.84916000	0.13533460
25.89999864	0.00000000	54.10310000	2.50369100
26.09999863	0.00000000	33.21235000	6.35457700
26.29999862	0.00000000	8.45841400	10.53765000
26.49999860	0.00000000	-14.66535000	13.65650000
26.69999859	0.00000000	-30.43799000	15.18824000
26.89999858	0.00000000	-34.71949000	14.72072000
27.09999857	0.00000000	-26.62401000	11.56496000
27.29999856	0.00000000	-8.51993000	5.75787400
27.49999854	0.00000000	15.43430000	-1.58095500
27.69999853	0.00000000	39.40084000	-8.87057000
27.89999852	0.00000000	58.33538000	-14.25935000
28.09999851	0.00000000	68.01181000	-16.12328000
28.29999850	0.00000000	66.11097000	-13.79798000
28.49999848	0.00000000	53.82013000	-7.11737200
28.69999847	0.00000000	34.14124000	2.92199800
28.89999846	0.00000000	12.13091000	14.85605000
29.09999845	0.00000000	-7.26500900	25.26452000
29.29999844	0.00000000	-20.42938000	31.82209000
29.49999843	0.00000000	-24.75394000	33.26156000
29.69999841	0.00000000	-19.77731000	27.82972000
29.89999840	0.00000000	-7.44955700	16.63386000
30.09999839	0.00000000	9.57800100	2.31914400
30.29999838	0.00000000	27.34990000	-12.77067000
30.49999837	0.00000000	42.09522000	-25.04306000
30.69999835	0.00000000	51.03346000	-31.59449000
30.89999834	0.00000000	52.61442000	-30.38878000
31.09999833	0.00000000	46.88730000	-21.55512000
31.29999832	0.00000000	35.72219000	-7.20349400
31.49999831	0.00000000	22.13336000	9.80561000
31.69999829	0.00000000	8.59375000	26.43332000
31.89999828	0.00000000	-2.23917300	38.70571000
32.09999827	0.00000000	-7.68946800	43.76230000
32.29999826	0.00000000	-7.40034400	40.28051000
32.49999825	0.00000000	-1.96235200	29.49680000
32.69999824	0.00000000	7.29576700	13.61343000
32.89999822	0.00000000	18.50394000	-4.14000900
33.09999821	0.00000000	28.93085000	-20.02337000
33.29999820	0.00000000	36.28199000	-30.80709000
33.49999819	0.00000000	39.02559000	-34.33194000
33.69999818	0.00000000	36.74950000	-29.64444000
33.89999816	0.00000000	30.60408000	-18.15945000
34.09999815	0.00000000	22.13336000	-2.28223400
34.29999814	0.00000000	13.66880000	13.93947000
34.49999813	0.00000000	7.43110200	27.92200000
34.69999812	0.00000000	4.31840500	36.70644000
34.89999810	0.00000000	4.69365100	37.91216000
35.09999809	0.00000000	8.55068800	31.40994000
35.29999808	0.00000000	14.64690000	19.46358000
35.49999807	0.00000000	21.20448000	4.78592500
35.69999806	0.00000000	26.18725000	-9.47957600
35.89999805	0.00000000	28.55561000	-19.88804000
36.09999803	0.00000000	27.81127000	-24.16338000
36.29999802	0.00000000	24.74163000	-21.51206000
36.49999801	0.00000000	20.08489000	-13.05364000
36.69999800	0.00000000	14.73917000	-1.15649600
36.89999799	0.00000000	10.54995000	11.14665000
37.09999797	0.00000000	8.96899500	20.39862000
37.29999796	0.00000000	10.08243000	24.66781000
37.49999795	0.00000000	13.15822000	23.13607000
37.69999794	0.00000000	17.43356000	16.25861000
37.89999793	0.00000000	22.04109000	6.31151500
38.09999791	0.00000000	25.90428000	-3.62942900
38.29999790	0.00000000	27.81127000	-10.54995000
38.49999789	0.00000000	27.43602000	-12.50000000
38.69999788	0.00000000	24.74163000	-9.43036400
38.89999787	0.00000000	20.50935000	-2.14074800
39.09999786	0.00000000	15.90182000	7.38188900
39.29999784	0.00000000	11.99557000	15.79724000
39.49999783	0.00000000	9.62106200	20.39862000
39.69999782	0.00000000	8.50147600	20.06643000
39.89999781	0.00000000	9.25196800	15.05290000
40.09999780	0.00000000	11.98942000	6.96358300
40.29999778	0.00000000	15.44045000	-2.64517700
40.49999777	0.00000000	19.75886000	-10.96826000
40.69999776	0.00000000	23.57899000	-14.81914000
40.89999775	0.00000000	26.36565000	-12.96752000
41.09999774	0.00000000	27.86048000	-6.83439900
41.29999772	0.00000000	27.48524000	2.04232300
41.49999771	0.00000000	25.15994000	11.65723000
41.69999770	0.00000000	21.66585000	19.32825000
41.89999769	0.00000000	17.43356000	23.13607000
42.09999768	0.00000000	13.57652000	21.64739000
42.29999767	0.00000000	11.20202000	15.56348000
42.49999765	0.00000000	10.03937000	7.47416300
42.69999764	0.00000000	10.41462000	-1.02116100
42.89999763	0.00000000	12.31545000	-7.89862200
43.09999762	0.00000000	14.64690000	-11.05438000
43.29999761	0.00000000	17.39050000	-10.31619000
43.49999759	0.00000000	20.04183000	-6.50221400
43.69999758	0.00000000	21.62278000	-0.37524600
43.89999757	0.00000000	22.09030000	5.80093500
44.09999756	0.00000000	22.09030000	10.86983000
44.29999755	0.00000000	21.71506000	14.30241000
44.49999753	0.00000000	20.97072000	14.67766000
44.69999752	0.00000000	20.59547000	12.11860000
44.89999751	0.00000000	20.55241000	8.26771600
45.09999750	0.00000000	20.50935000	4.40452700
45.29999749	0.00000000	20.08489000	0.88582670
45.49999748	0.00000000	18.87918000	-1.39640700
45.69999746	0.00000000	16.92298000	-2.22687000
45.89999745	0.00000000	14.22859000	-1.43946800
46.09999744	0.00000000	11.53420000	0.46751960
46.29999743	0.00000000	9.62106200	3.15575800
46.49999742	0.00000000	8.87672100	5.85014700
46.69999740	0.00000000	10.13164000	7.80019600
46.89999739	0.00000000	13.61959000	8.96284400
47.09999738	0.00000000	19.06373000	8.96284400
47.29999737	0.00000000	25.20300000	7.80019600
47.49999736	0.00000000	30.60408000	5.85014700
47.69999734	0.00000000	33.63066000	3.15575800
47.89999733	0.00000000	33.21235000	0.51058070
48.09999732	0.00000000	28.93085000	-1.06422200
48.29999731	0.00000000	21.62278000	-1.48253000
48.49999730	0.00000000	13.11516000	-1.06422200
48.69999729	0.00000000	5.38877900	0.51058070
48.89999727	0.00000000	0.03690945	3.19881900
49.09999726	0.00000000	-1.07652500	6.26845500
49.29999725	0.00000000	2.73745100	8.96284400
49.49999724	0.00000000	10.08243000	10.49459000
49.69999723	0.00000000	19.34670000	10.49459000
49.89999721	0.00000000	28.59867000	8.96284400
50.09999720	0.00000000	35.12549000	6.22539300
50.29999719	0.00000000	37.44463000	2.73745100
50.49999718	0.00000000	34.70103000	-1.07037400
50.69999717	0.00000000	27.44217000	-3.71555100
50.89999715	0.00000000	17.85802000	-4.14000900
51.09999714	0.00000000	8.96899500	-2.64517700
51.29999713	0.00000000	2.78051200	0.09227362
51.49999712	0.00000000	0.50442900	3.57406500
51.69999711	0.00000000	3.15575800	7.42495000
51.89999710	0.00000000	9.66412400	10.49459000
52.09999708	0.00000000	17.72268000	12.07554000
52.29999707	0.00000000	25.47982000	12.03248000
52.49999706	0.00000000	30.79478000	10.07628000
52.69999705	0.00000000	32.36959000	6.26845500
52.89999704	0.00000000	29.30610000	2.08538400
53.09999702	0.00000000	23.24680000	-1.02116100
53.29999701	0.00000000	16.27707000	-2.60211600
53.49999700	0.00000000	10.13164000	-2.60211600
53.69999699	0.00000000	6.27460600	-1.07037400
53.89999698	0.00000000	5.89936000	1.62401600
54.09999696	0.00000000	8.92593500	4.64443900
54.29999695	0.00000000	14.32087000	6.96358300
54.49999694	0.00000000	20.46014000	7.75713500
54.69999693	0.00000000	25.85507000	7.38188900
54.89999692	0.00000000	28.88164000	5.85014700
55.09999691	0.00000000	28.55561000	3.61712600
55.29999689	0.00000000	25.11688000	2.08538400
55.49999688	0.00000000	20.08489000	1.66707700
55.69999687	0.00000000	14.32087000	2.08538400
55.89999686	0.00000000	9.38730200	3.61712600
56.09999685	0.00000000	7.43110200	5.85014700
56.29999683	0.00000000	8.50147600	7.38188900
56.49999682	0.00000000	11.62032000	7.75713500
56.69999681	0.00000000	16.22785000	6.96358300
56.89999680	0.00000000	21.20448000	4.60137700
57.09999679	0.00000000	24.69857000	1.20570900
57.29999677	0.00000000	26.27953000	-2.22687000
57.49999676	0.00000000	25.90428000	-4.14000900
57.69999675	0.00000000	23.57899000	-4.14000900
57.89999674	0.00000000	20.13410000	-2.14074800
58.09999673	0.00000000	16.27707000	2.08538400
58.29999672	0.00000000	13.24434000	7.42495000
58.49999670	0.00000000	12.03863000	12.07554000
58.69999669	0.00000000	12.73991000	15.14518000
58.89999668	0.00000000	14.27165000	15.84030000
59.09999667	0.00000000	16.22785000	13.10285000
59.29999666	0.00000000	18.55315000	7.38188900
59.49999664	0.00000000	20.41708000	0.46751960
59.69999663	0.00000000	21.24754000	-5.67175200
59.89999662	0.00000000	20.88459000	-9.52263600
60.09999661	0.00000000	20.13410000	-9.89788300
60.29999660	0.00000000	18.97145000	-6.82824800
60.49999658	0.00000000	17.80881000	-1.02116100
60.69999657	0.00000000	17.05832000	6.26845500
60.89999656	0.00000000	16.64616000	13.18898000
61.09999655	0.00000000	17.05832000	17.83957000
61.29999654	0.00000000	17.76575000	19.37131000
61.49999653	0.00000000	18.55315000	17.42126000
61.69999651	0.00000000	18.87918000	11.98942000
61.89999650	0.00000000	18.55315000	4.31840500
62.09999649	0.00000000	17.80881000	-3.76476400
62.29999648	0.00000000	17.39050000	-9.89788300
62.49999647	0.00000000	16.92298000	-12.63533000
62.69999645	0.00000000	15.85261000	-11.47884000
62.89999644	0.00000000	15.15748000	-6.87746000
63.09999643	0.00000000	15.90182000	0.09227362
63.29999642	0.00000000	17.39050000	7.80019600
63.49999641	0.00000000	18.92839000	14.72687000
63.69999639	0.00000000	20.08489000	18.95300000
63.89999638	0.00000000	20.50935000	19.37131000
64.09999637	0.00000000	20.50935000	16.35089000
64.29999636	0.00000000	20.04183000	10.91289000
64.49999635	0.00000000	18.55315000	4.36146600
64.69999634	0.00000000	16.64616000	-2.18380900
64.89999632	0.00000000	15.47736000	-6.82824800
65.09999631	0.00000000	14.69611000	-8.82750900
65.29999630	0.00000000	14.73917000	-8.45226300
65.49999629	0.00000000	15.85261000	-5.71481200
65.69999628	0.00000000	17.34744000	-1.11343500
65.89999626	0.00000000	18.50394000	4.27534400
66.09999625	0.00000000	18.92839000	8.91978400
66.29999624	0.00000000	18.92839000	12.07554000
66.49999623	0.00000000	18.50394000	13.65650000
66.69999622	0.00000000	17.34744000	13.65650000
66.89999620	0.00000000	15.85261000	12.11860000
67.09999619	0.00000000	14.73917000	9.42421200
67.29999618	0.00000000	14.73917000	6.31151500
67.49999617	0.00000000	15.90182000	3.15575800
67.69999616	0.00000000	17.80881000	0.04306102
67.89999615	0.00000000	20.13410000	-2.64517700
68.09999613	0.00000000	22.04109000	-4.22613100
68.29999612	0.00000000	23.20374000	-4.64443900
68.49999611	0.00000000	23.11762000	-4.22613100
68.69999610	0.00000000	21.20448000	-2.60211600
68.89999609	0.00000000	17.72268000	0.51058070
69.09999607	0.00000000	13.89641000	4.73671200
69.29999606	0.00000000	10.41462000	9.00590400
69.49999605	0.00000000	8.50147600	12.49385000
69.69999604	0.00000000	8.50147600	14.76993000
69.89999603	0.00000000	10.50689000	14.72072000
70.09999601	0.00000000	14.73917000	12.07554000
70.29999600	0.00000000	20.08489000	7.84940900
70.49999599	0.00000000	24.74163000	3.15575800
70.69999598	0.00000000	27.86048000	-1.48868100
70.89999597	0.00000000	28.97392000	-5.33956700
71.09999596	0.00000000	27.39296000	-7.24655500
71.29999594	0.00000000	23.16068000	-6.87746000
71.49999593	0.00000000	17.39050000	-4.18307100
71.69999592	0.00000000	11.57726000	0.04306102
71.89999591	0.00000000	6.96973400	4.69365100
72.09999590	0.00000000	4.64443900	8.91978400
72.29999588	0.00000000	5.33956700	11.61417000
72.49999587	0.00000000	8.08316900	12.03248000
72.69999586	0.00000000	12.41388000	10.53765000
72.89999585	0.00000000	18.55315000	7.84940900
73.09999584	0.00000000	24.27411000	4.77977300
73.29999582	0.00000000	27.81127000	2.08538400
73.49999581	0.00000000	28.97392000	0.51058070
73.69999580	0.00000000	27.43602000	0.09227362
73.89999579	0.00000000	23.62205000	0.46136810
74.09999578	0.00000000	18.97145000	1.62401600
74.29999577	0.00000000	14.32087000	3.11269700
74.49999575	0.00000000	10.45768000	4.22613100
74.69999574	0.00000000	8.55068800	4.22613100
74.89999573	0.00000000	8.87672100	3.15575800
75.09999572	0.00000000	11.15896000	1.99311000
75.29999571	0.00000000	14.22859000	1.29183100
75.49999569	0.00000000	17.34744000	1.29798200
75.69999568	0.00000000	20.08489000	2.87278500
75.89999567	0.00000000	21.99803000	5.15501900
76.09999566	0.00000000	22.78543000	7.84940900
76.29999565	0.00000000	22.04109000	10.11934000
76.49999563	0.00000000	20.55241000	10.86983000
76.69999562	0.00000000	19.01451000	10.07628000
76.89999561	0.00000000	17.80881000	7.33882900
77.09999560	0.00000000	17.05832000	3.15575800
77.29999559	0.00000000	16.64616000	-1.11343500
77.49999558	0.00000000	17.01525000	-4.60137700
77.69999556	0.00000000	17.29823000	-6.87746000
77.89999555	0.00000000	16.97219000	-6.82824800
78.09999554	0.00000000	16.18479000	-4.14000900
78.29999553	0.00000000	15.43430000	0.46136810
78.49999552	0.00000000	14.69611000	5.89320800
78.69999550	0.00000000	14.69611000	10.86983000
78.89999549	0.00000000	15.47736000	14.34547000
79.09999548	0.00000000	16.64616000	15.14518000
79.29999547	0.00000000	18.59621000	13.60728000
79.49999546	0.00000000	20.46014000	10.11934000
79.69999544	0.00000000	21.66585000	5.11195900
79.89999543	0.00000000	22.04109000	0.13533460
80.09999542	0.00000000	21.62278000	-3.76476400
80.29999541	0.00000000	20.04183000	-5.71481200
80.49999540	0.00000000	17.39050000	-5.75787400
80.69999539	0.00000000	14.73917000	-4.18307100
80.89999537	0.00000000	13.11516000	-1.11343500
81.09999536	0.00000000	12.36466000	2.73745100
81.29999535	0.00000000	12.41388000	6.22539300
