Time	Channel A	Channel B	Channel C
(us)	(V)	(mV)	(mV)

-4.49999956	0.00000000	-27.25147000	-1.57480300
-4.29999957	0.00000000	-26.91929000	-1.57480300
-4.09999958	0.00000000	-26.87623000	-1.57480300
-3.89999959	0.00000000	-26.87623000	-1.57480300
-3.69999960	0.00000000	-26.87623000	-1.61786400
-3.49999962	0.00000000	-26.87623000	-1.95004900
-3.29999963	0.00000000	-26.87623000	-2.36220500
-3.09999964	0.00000000	-26.87623000	-2.32529500
-2.89999965	0.00000000	-26.87623000	-2.36220500
-2.69999966	0.00000000	-26.87623000	-1.95004900
-2.49999968	0.00000000	-26.87623000	-1.66707700
-2.29999969	0.00000000	-26.87623000	-1.95004900
-2.09999970	0.00000000	-26.87623000	-2.31914400
-1.89999971	0.00000000	-26.87623000	-1.95004900
-1.69999972	0.00000000	-26.87623000	-1.61786400
-1.49999973	0.00000000	-26.87623000	-1.61786400
-1.29999975	0.00000000	-26.87623000	-1.95004900
-1.09999976	0.00000000	-26.87623000	-2.31914400
-0.89999977	0.00000000	-26.87623000	-1.95004900
-0.69999978	0.00000000	-26.87623000	-1.61786400
-0.49999979	0.00000000	-26.87623000	-1.57480300
-0.29999981	0.31803640	-26.87623000	-1.57480300
-0.09999982	0.63668800	-26.87623000	-1.57480300
0.10000017	0.95533960	-26.87623000	-1.57480300
0.30000016	0.95533960	-26.87623000	-1.61786400
0.50000015	0.95533960	-26.87623000	-1.95004900
0.70000013	0.47736220	-26.87623000	-2.31914400
0.90000012	-0.47736220	-26.87623000	-1.95004900
1.10000011	-1.43331700	-26.87623000	-1.61786400
1.30000010	-2.22994600	-26.87623000	-1.57480300
1.50000009	-2.70792300	-26.87623000	-1.57480300
1.70000008	-2.54859700	-26.87623000	-1.57480300
1.90000006	-1.43331700	-26.87623000	-1.57480300
2.10000005	0.31803640	-26.87623000	-1.57480300
2.30000004	2.38927200	-26.87623000	-1.57480300
2.50000003	4.30056600	-26.87623000	-1.61786400
2.70000002	5.25652100	-26.87623000	-1.99311000
2.90000000	4.93786900	-26.87623000	-2.73745100
3.09999999	3.18590100	-26.87623000	-3.11269700
3.29999998	0.31803640	-26.87623000	-3.15575800
3.49999997	-3.02657500	-26.87623000	-3.11269700
3.69999996	-6.05315000	-26.87623000	-2.73745100
3.89999994	-7.80511800	-26.87623000	-1.99311000
4.09999993	-7.64579200	-26.87623000	-1.61786400
4.29999992	-5.41584600	-26.87623000	-1.57480300
4.49999991	-1.59264300	-26.87623000	-1.57480300
4.69999990	2.86724900	-26.87623000	-1.57480300
4.89999989	6.84916400	-26.87623000	-1.61786400
5.09999987	9.07972400	-26.87623000	-1.99311000
5.29999986	9.23905000	-26.87623000	-2.73745100
5.49999985	7.00848900	-26.87623000	-3.11269700
5.69999984	3.02657500	-26.87623000	-3.15575800
5.89999983	-1.91129400	-26.87623000	-3.11269700
6.09999981	-6.21247500	-26.87623000	-2.73745100
6.29999980	-8.92039900	-26.87623000	-1.99311000
6.49999979	-9.39837600	-26.87623000	-1.61786400
6.69999978	-7.48646600	-26.87623000	-1.57480300
6.89999977	-3.82258900	-26.87623000	-1.57480300
7.09999975	0.47736220	-26.87623000	-1.57480300
7.29999974	4.45989200	-26.87623000	-1.57480300
7.49999973	7.00848900	-26.87623000	-1.57480300
7.69999972	7.80511800	-26.87623000	-1.61786400
7.89999971	6.53112700	-26.87623000	-1.95004900
8.09999970	3.82258900	-26.87623000	-2.31914400
8.29999968	0.47736220	-26.87623000	-1.99311000
8.49999967	-2.54859700	-26.87623000	-2.04232300
8.69999966	-4.61921700	-26.87623000	-2.68823800
8.89999965	-5.25652100	-26.87623000	-2.68823800
9.09999964	-4.45989200	-26.87623000	-1.99311000
9.29999962	-2.86724900	-26.87623000	-1.61786400
9.49999961	-0.95533960	-26.87623000	-1.57480300
9.69999960	0.95533960	-26.87623000	-1.57480300
9.89999959	2.07062000	-26.87623000	-1.57480300
10.09999958	2.54859700	-26.87623000	-1.57480300
10.29999956	2.22994600	-26.87623000	-1.61786400
10.49999955	1.59264300	-26.87623000	-1.95004900
10.69999954	0.63668800	-26.87623000	-2.36220500
10.89999953	-0.15871060	-26.87623000	-2.32529500
11.09999952	-0.63668800	-26.87623000	-2.36220500
11.29999951	-0.95533960	-26.87623000	-1.95004900
11.49999949	-0.95533960	-26.87623000	-1.61786400
11.69999948	-0.79601380	-26.87623000	-1.57480300
11.89999947	-0.47736220	-26.87623000	-1.57480300
12.09999946	-0.15871060	-26.87623000	-1.57480300
12.29999945	-0.15871060	-26.87623000	-1.57480300
12.49999943	0.00000000	-26.87623000	-1.57480300
12.69999942	0.00000000	-26.87623000	-1.57480300
12.89999941	0.00000000	-26.87623000	-1.57480300
13.09999940	0.00000000	-26.87623000	-1.57480300
13.29999939	0.15871060	-26.87623000	-1.61786400
13.49999937	0.00000000	-26.87623000	-1.95004900
13.69999936	0.00000000	-26.87623000	-2.31914400
13.89999935	0.00000000	-26.87623000	-1.95004900
14.09999934	-0.15871060	-26.87623000	-1.61786400
14.29999933	-0.15871060	-26.87623000	-1.57480300
14.49999932	-0.15871060	-26.87623000	-1.57480300
14.69999930	0.00000000	-26.87623000	-1.57480300
14.89999929	0.00000000	-26.87623000	-1.57480300
15.09999928	0.00000000	-26.87623000	-1.57480300
15.29999927	0.00000000	-26.87623000	-1.57480300
15.49999926	0.00000000	-26.87623000	-1.57480300
15.69999924	0.00000000	-26.87623000	-1.57480300
15.89999923	0.00000000	-26.87623000	-1.57480300
16.09999922	0.00000000	-26.87623000	-1.57480300
16.29999921	0.00000000	-26.87623000	-1.57480300
16.49999920	0.00000000	-26.87623000	-1.61786400
16.69999919	-0.15871060	-26.83317000	-1.95004900
16.89999917	0.00000000	-26.45792000	-2.36220500
17.09999916	0.00000000	-25.71358000	-2.32529500
17.29999915	0.00000000	-25.33834000	-2.40526600
17.49999914	0.00000000	-25.29527000	-2.32529500
17.69999913	0.00000000	-25.29527000	-2.40526600
17.89999911	0.00000000	-25.33834000	-2.32529500
18.09999910	0.00000000	-25.76279000	-2.40526600
18.29999909	0.00000000	-26.91929000	-2.32529500
18.49999908	0.00000000	-28.45718000	-2.36220500
18.69999907	0.00000000	-29.99508000	-1.95004900
18.89999905	0.00000000	-31.15157000	-1.61786400
19.09999904	0.00000000	-31.48376000	-1.57480300
19.29999903	0.00000000	-30.69020000	-1.57480300
19.49999902	0.00000000	-28.32185000	-1.57480300
19.69999901	0.00000000	-24.87697000	-1.57480300
19.89999900	0.00000000	-20.97072000	-1.57480300
20.09999898	0.00000000	-17.52584000	-1.57480300
20.29999897	0.00000000	-15.24975000	-1.57480300
20.49999896	0.00000000	-15.33587000	-1.57480300
20.69999895	0.00000000	-18.45472000	-1.57480300
20.89999894	0.00000000	-24.26796000	-1.57480300
21.09999892	0.00000000	-31.61909000	-1.57480300
21.29999891	0.00000000	-38.97638000	-1.57480300
21.49999890	0.00000000	-44.74655000	-1.57480300
21.69999889	0.00000000	-47.35482000	-1.57480300
21.89999888	0.00000000	-45.30634000	-1.57480300
22.09999886	0.00000000	-37.91216000	-1.61786400
22.29999885	0.00000000	-26.36565000	-1.95004900
22.49999884	0.00000000	-13.61959000	-2.31914400
22.69999883	0.00000000	-2.78051200	-1.95004900
22.89999882	0.00000000	4.10310000	-1.61786400
23.09999881	0.00000000	4.75516700	-1.57480300
23.29999879	0.00000000	-2.26377900	-1.53174200
23.49999878	0.00000000	-15.80339000	-1.15649600
23.69999877	0.00000000	-33.20005000	-0.41830710
23.89999876	0.00000000	-50.55979000	-0.04306102
24.09999875	0.00000000	-63.63803000	-0.04306102
24.29999873	0.00000000	-68.98991000	-0.46136810
24.49999872	0.00000000	-64.66535000	-1.62401600
24.69999871	0.00000000	-51.11958000	-3.15575800
24.89999870	0.00000000	-30.97933000	-4.73671200
25.09999869	0.00000000	-8.59375000	-6.26845500
25.29999867	0.00000000	11.03592000	-7.42495000
25.49999866	0.00000000	22.57628000	-7.75713500
25.69999865	0.00000000	22.95152000	-6.96358300
25.89999864	0.00000000	12.10630000	-4.60137700
26.09999863	0.00000000	-7.98474400	-1.15649600
26.29999862	0.00000000	-32.64640000	2.73745100
26.49999860	0.00000000	-55.86245000	6.22539300
26.69999859	0.00000000	-72.47785000	8.87057000
26.89999858	0.00000000	-78.99237000	9.56569900
27.09999857	0.00000000	-73.26525000	7.20349400
27.29999856	0.00000000	-57.08046000	2.18380900
27.49999854	0.00000000	-34.97170000	-4.82898600
27.69999853	0.00000000	-10.64222000	-12.49385000
27.89999852	0.00000000	10.15010000	-19.04527000
28.09999851	0.00000000	21.78888000	-22.44094000
28.29999850	0.00000000	22.66240000	-21.64739000
28.49999848	0.00000000	12.99213000	-16.16634000
28.69999847	0.00000000	-4.73671200	-6.87746000
28.89999846	0.00000000	-26.36565000	4.73671200
29.09999845	0.00000000	-46.88730000	16.25861000
29.29999844	0.00000000	-62.00787000	24.71703000
29.49999843	0.00000000	-68.98991000	27.78666000
29.69999841	0.00000000	-66.33243000	24.62475000
29.89999840	0.00000000	-55.21038000	15.28666000
30.09999839	0.00000000	-39.01944000	1.02116100
30.29999838	0.00000000	-21.57357000	-14.81299000
30.49999837	0.00000000	-6.40378900	-28.66634000
30.69999835	0.00000000	4.06003900	-37.53691000
30.89999834	0.00000000	7.96628900	-38.66264000
31.09999833	0.00000000	4.52755900	-32.10507000
31.29999832	0.00000000	-4.73671200	-18.90994000
31.49999831	0.00000000	-17.90108000	-1.53174200
31.69999829	0.00000000	-32.18504000	16.21555000
31.89999828	0.00000000	-44.18676000	30.48105000
32.09999827	0.00000000	-51.58710000	37.81988000
32.29999826	0.00000000	-53.21112000	36.70644000
32.49999825	0.00000000	-49.35408000	27.78666000
32.69999824	0.00000000	-41.20940000	12.68455000
32.89999822	0.00000000	-30.03814000	-5.85014700
33.09999821	0.00000000	-18.87303000	-23.55438000
33.29999820	0.00000000	-10.68528000	-36.33120000
33.49999819	0.00000000	-6.36072800	-41.40009000
33.69999818	0.00000000	-6.36072800	-38.33046000
33.89999816	0.00000000	-10.64222000	-27.92200000
34.09999815	0.00000000	-18.31939000	-12.45079000
34.29999814	0.00000000	-27.52830000	4.55831700
34.49999813	0.00000000	-35.25467000	20.02337000
34.69999812	0.00000000	-39.95448000	30.43184000
34.89999810	0.00000000	-41.11712000	33.54453000
35.09999809	0.00000000	-38.46580000	28.94316000
35.29999808	0.00000000	-33.06471000	17.74729000
35.49999807	0.00000000	-26.50098000	2.73745100
35.69999806	0.00000000	-19.99262000	-12.68455000
35.89999805	0.00000000	-15.80339000	-24.62475000
36.09999803	0.00000000	-15.33587000	-30.47490000
36.29999802	0.00000000	-17.94414000	-29.36146000
36.49999801	0.00000000	-22.22564000	-22.06570000
36.69999800	0.00000000	-27.25147000	-10.54380000
36.89999799	0.00000000	-32.22810000	2.18380900
37.09999797	0.00000000	-35.25467000	12.92446000
37.29999796	0.00000000	-35.30389000	19.09449000
37.49999795	0.00000000	-32.64640000	18.73154000
37.69999794	0.00000000	-28.41412000	12.68455000
37.89999793	0.00000000	-23.80659000	3.06963600
38.09999791	0.00000000	-19.90034000	-7.25270600
38.29999790	0.00000000	-17.61811000	-15.32972000
38.49999789	0.00000000	-17.20595000	-18.77460000
38.69999788	0.00000000	-19.10679000	-16.91068000
38.89999787	0.00000000	-22.17643000	-10.35925000
39.09999786	0.00000000	-25.71358000	-1.19955700
39.29999784	0.00000000	-29.57062000	7.99089500
39.49999783	0.00000000	-32.64640000	14.08095000
39.69999782	0.00000000	-34.23351000	15.23745000
39.89999781	0.00000000	-34.23351000	11.01132000
40.09999780	0.00000000	-32.68946000	2.60211600
40.29999778	0.00000000	-29.99508000	-7.38188900
40.49999777	0.00000000	-26.83317000	-16.16634000
40.69999776	0.00000000	-23.33907000	-21.17987000
40.89999775	0.00000000	-19.90034000	-20.77387000
41.09999774	0.00000000	-17.94414000	-15.42200000
41.29999772	0.00000000	-17.52584000	-6.17618100
41.49999771	0.00000000	-18.31939000	4.14000900
41.69999770	0.00000000	-20.68774000	12.64149000
41.89999769	0.00000000	-24.08957000	17.24286000
42.09999768	0.00000000	-27.62057000	16.86762000
42.29999767	0.00000000	-30.37032000	11.52190000
42.49999765	0.00000000	-32.68946000	3.11269700
42.69999764	0.00000000	-33.80905000	-5.75787400
42.89999763	0.00000000	-33.11393000	-13.14591000
43.09999762	0.00000000	-31.57603000	-17.74729000
43.29999761	0.00000000	-29.57062000	-18.53469000
43.49999759	0.00000000	-26.87623000	-15.09596000
43.69999758	0.00000000	-24.22490000	-8.96284400
43.89999757	0.00000000	-22.64394000	-1.66707700
44.09999756	0.00000000	-22.17643000	4.87819900
44.29999755	0.00000000	-22.13336000	8.73523500
44.49999753	0.00000000	-22.13336000	9.61491000
44.69999752	0.00000000	-22.13336000	7.71407400
44.89999751	0.00000000	-22.17643000	4.26919300
45.09999750	0.00000000	-22.60088000	0.00000000
45.29999749	0.00000000	-23.75738000	-4.22613100
45.49999748	0.00000000	-25.33834000	-7.29576700
45.69999746	0.00000000	-27.34375000	-8.54453700
45.89999745	0.00000000	-30.08120000	-8.17544300
46.09999744	0.00000000	-33.11393000	-7.01279500
46.29999743	0.00000000	-35.43922000	-4.68750000
46.49999742	0.00000000	-36.18971000	-1.99311000
46.69999740	0.00000000	-35.30389000	0.33218500
46.89999739	0.00000000	-31.80979000	2.27608300
47.09999738	0.00000000	-26.04577000	3.02042300
47.29999737	0.00000000	-20.22022000	2.68823800
47.49999736	0.00000000	-14.78223000	1.48868100
47.69999734	0.00000000	-10.96826000	-0.46751960
47.89999733	0.00000000	-10.26698000	-3.15575800
48.09999732	0.00000000	-13.01673000	-5.80093500
48.29999731	0.00000000	-19.61737000	-7.33882900
48.49999730	0.00000000	-28.41412000	-7.38188900
48.69999729	0.00000000	-36.92790000	-6.22539300
48.89999727	0.00000000	-43.07332000	-4.26919300
49.09999726	0.00000000	-45.39862000	-1.53174200
49.29999725	0.00000000	-43.07332000	1.53174200
49.49999724	0.00000000	-36.88484000	4.22613100
49.69999723	0.00000000	-27.99582000	5.71481200
49.89999721	0.00000000	-18.36245000	5.33956700
50.09999720	0.00000000	-10.64222000	3.02042300
50.29999719	0.00000000	-6.45300100	-0.46751960
50.49999718	0.00000000	-7.20349400	-4.69365100
50.69999717	0.00000000	-12.96137000	-8.50147600
50.89999715	0.00000000	-21.38902000	-10.45152000
51.09999714	0.00000000	-30.69020000	-10.45152000
51.29999713	0.00000000	-38.37352000	-8.50147600
51.49999712	0.00000000	-42.65502000	-4.64443900
51.69999711	0.00000000	-42.65502000	-0.04306102
51.89999710	0.00000000	-38.41658000	4.18307100
52.09999708	0.00000000	-31.10851000	6.87746000
52.29999707	0.00000000	-22.68701000	7.24655500
52.49999706	0.00000000	-15.80339000	5.38262700
52.69999705	0.00000000	-12.64149000	1.90698800
52.89999704	0.00000000	-13.33661000	-1.95004900
53.09999702	0.00000000	-16.83071000	-5.80093500
53.29999701	0.00000000	-22.64394000	-8.45226300
53.49999700	0.00000000	-29.48450000	-8.87672100
53.69999699	0.00000000	-34.88558000	-7.38188900
53.89999698	0.00000000	-37.21703000	-4.68750000
54.09999696	0.00000000	-36.46653000	-1.62401600
54.29999695	0.00000000	-32.60334000	1.07037400
54.49999694	0.00000000	-26.87623000	2.60211600
54.69999693	0.00000000	-21.10605000	2.60211600
54.89999692	0.00000000	-16.87377000	1.11343500
55.09999691	0.00000000	-15.33587000	-1.15649600
55.29999689	0.00000000	-16.87377000	-3.06348400
55.49999688	0.00000000	-21.06299000	-4.22613100
55.69999687	0.00000000	-26.40871000	-4.18307100
55.89999686	0.00000000	-31.02239000	-2.69439000
56.09999685	0.00000000	-33.76599000	-0.37524600
56.29999683	0.00000000	-34.14124000	1.86392700
56.49999682	0.00000000	-32.27116000	3.38951800
56.69999681	0.00000000	-28.78937000	2.93430100
56.89999680	0.00000000	-24.96309000	0.64591530
57.09999679	0.00000000	-21.43824000	-3.20497000
57.29999677	0.00000000	-19.14985000	-7.38188900
57.49999676	0.00000000	-18.36245000	-10.45152000
57.69999675	0.00000000	-19.52510000	-11.56496000
57.89999674	0.00000000	-22.17643000	-9.98400600
58.09999673	0.00000000	-25.29527000	-5.75787400
58.29999672	0.00000000	-28.36491000	0.00000000
58.49999670	0.00000000	-30.64714000	5.75787400
58.69999669	0.00000000	-31.06545000	9.98400600
58.89999668	0.00000000	-29.99508000	11.47269000
59.09999667	0.00000000	-28.41412000	9.56569900
59.29999666	0.00000000	-26.45792000	4.55831700
59.49999664	0.00000000	-24.22490000	-1.99311000
59.69999663	0.00000000	-23.06225000	-8.96284400
59.89999662	0.00000000	-23.38214000	-14.67766000
60.09999661	0.00000000	-24.13263000	-17.32899000
60.29999660	0.00000000	-25.29527000	-15.79109000
60.49999658	0.00000000	-26.40871000	-10.40846000
60.69999657	0.00000000	-26.78395000	-2.73745100
60.89999656	0.00000000	-26.45792000	5.33956700
61.09999655	0.00000000	-25.67052000	11.52190000
61.29999654	0.00000000	-24.92003000	14.63459000
61.49999653	0.00000000	-24.13263000	14.16708000
61.69999651	0.00000000	-23.75738000	9.56569900
61.89999650	0.00000000	-23.80659000	1.86392700
62.09999649	0.00000000	-24.60015000	-6.55142700
62.29999648	0.00000000	-26.50098000	-13.92717000
62.49999647	0.00000000	-28.36491000	-18.12254000
62.69999645	0.00000000	-29.57062000	-18.57775000
62.89999644	0.00000000	-29.94586000	-15.05290000
63.09999643	0.00000000	-29.52756000	-8.54453700
63.29999642	0.00000000	-27.94660000	-0.41830710
63.49999641	0.00000000	-25.29527000	7.25270600
63.69999639	0.00000000	-22.60088000	12.63533000
63.89999638	0.00000000	-20.68774000	14.21629000
64.09999637	0.00000000	-19.90034000	11.98327000
64.29999636	0.00000000	-20.68774000	7.33882900
64.49999635	0.00000000	-22.60088000	1.15649600
64.69999634	0.00000000	-25.29527000	-5.38262700
64.89999632	0.00000000	-27.98966000	-10.45152000
65.09999631	0.00000000	-29.94586000	-13.56422000
65.29999630	0.00000000	-31.06545000	-14.35162000
65.49999629	0.00000000	-30.64714000	-12.40773000
65.69999628	0.00000000	-28.41412000	-8.63681000
65.89999626	0.00000000	-25.76279000	-3.94931100
66.09999625	0.00000000	-23.75738000	0.28297240
66.29999624	0.00000000	-22.22564000	3.85088600
66.49999623	0.00000000	-21.52436000	6.17618100
66.69999622	0.00000000	-22.64394000	7.38188900
66.89999620	0.00000000	-24.87697000	7.33882900
67.09999619	0.00000000	-26.83317000	5.80093500
67.29999618	0.00000000	-28.36491000	3.11269700
67.49999617	0.00000000	-29.10925000	0.00000000
67.69999616	0.00000000	-28.32185000	-3.15575800
67.89999615	0.00000000	-26.40871000	-6.26845500
68.09999613	0.00000000	-23.71432000	-8.96284400
68.29999612	0.00000000	-21.06299000	-10.53765000
68.49999611	0.00000000	-19.56816000	-10.91289000
68.69999610	0.00000000	-19.94340000	-10.07628000
68.89999609	0.00000000	-22.26870000	-7.33882900
69.09999607	0.00000000	-25.71358000	-3.11269700
69.29999606	0.00000000	-29.61983000	1.53174200
69.49999605	0.00000000	-33.06471000	5.80093500
69.69999604	0.00000000	-35.34695000	8.87057000
69.89999603	0.00000000	-35.25467000	10.03322000
70.09999601	0.00000000	-32.22810000	8.82750900
70.29999600	0.00000000	-27.20841000	5.38262700
70.49999599	0.00000000	-21.80118000	0.37524600
70.69999598	0.00000000	-16.78149000	-4.69365100
70.89999597	0.00000000	-13.75492000	-9.33809000
71.09999596	0.00000000	-13.71186000	-12.72761000
71.29999594	0.00000000	-16.45546000	-13.14591000
71.49999593	0.00000000	-21.43824000	-10.86983000
71.69999592	0.00000000	-27.62057000	-7.00664300
71.89999591	0.00000000	-33.02165000	-1.99311000
72.09999590	0.00000000	-36.92790000	2.60211600
72.29999588	0.00000000	-38.46580000	5.71481200
72.49999587	0.00000000	-37.30315000	6.87130900
72.69999586	0.00000000	-33.80905000	5.75787400
72.89999585	0.00000000	-28.37106000	3.11269700
73.09999584	0.00000000	-22.22564000	0.04306102
73.29999582	0.00000000	-16.83071000	-2.64517700
73.49999581	0.00000000	-13.75492000	-4.22613100
73.69999580	0.00000000	-13.71186000	-4.64443900
73.89999579	0.00000000	-16.36319000	-4.26919300
74.09999578	0.00000000	-20.59547000	-3.11269700
74.29999577	0.00000000	-25.29527000	-1.66707700
74.49999575	0.00000000	-29.90280000	-0.87967510
74.69999574	0.00000000	-33.39075000	-1.24877000
74.89999573	0.00000000	-34.55955000	-2.04232300
75.09999572	0.00000000	-33.85827000	-3.57406500
75.29999571	0.00000000	-31.48376000	-5.38262700
75.49999569	0.00000000	-28.03888000	-5.71481200
75.69999568	0.00000000	-24.22490000	-4.22613100
75.89999567	0.00000000	-21.52436000	-1.53174200
76.09999566	0.00000000	-20.64468000	1.58095500
76.29999565	0.00000000	-20.64468000	4.64443900
76.49999563	0.00000000	-21.43824000	6.92052100
76.69999562	0.00000000	-23.29601000	7.24655500
76.89999561	0.00000000	-24.82775000	5.29650500
77.09999560	0.00000000	-25.67052000	1.06422200
77.29999559	0.00000000	-26.40871000	-4.31840500
77.49999558	0.00000000	-26.40871000	-9.29502900
77.69999556	0.00000000	-25.76279000	-12.81988000
77.89999555	0.00000000	-25.76279000	-13.93947000
78.09999554	0.00000000	-26.50098000	-12.77067000
78.29999553	0.00000000	-27.25147000	-8.87672100
78.49999552	0.00000000	-28.03888000	-3.15575800
