Time	Channel A	Channel B
(us)	(V)	(mV)

-4.59999956	0.00000000	28.26648000
-4.39999957	0.00000000	28.21727000
-4.19999958	0.00000000	28.97392000
-3.99999959	0.00000000	29.38607000
-3.79999960	0.00000000	29.43528000
-3.59999962	0.00000000	29.43528000
-3.39999963	0.00000000	29.43528000
-3.19999964	0.00000000	29.43528000
-2.99999965	0.00000000	29.43528000
-2.79999966	0.00000000	29.43528000
-2.59999968	0.00000000	29.43528000
-2.39999969	0.00000000	29.48450000
-2.19999970	0.00000000	29.89665000
-1.99999971	0.00000000	30.70866000
-1.79999972	0.00000000	31.07160000
-1.59999973	0.00000000	30.70866000
-1.39999975	0.00000000	29.89665000
-1.19999976	0.00000000	29.53371000
-0.99999977	0.00000000	29.89665000
-0.79999978	0.00000000	30.65945000
-0.59999979	0.00000000	30.65945000
-0.39999981	0.17531990	29.94586000
-0.19999982	0.52657480	29.94586000
0.00000017	0.87844490	30.70866000
0.20000016	1.05376500	31.07160000
0.40000015	0.87844490	30.70866000
0.60000013	0.52657480	29.89665000
0.80000012	-0.35125490	29.53371000
1.00000011	-1.22970000	29.89665000
1.20000010	-2.28408000	30.70866000
1.40000009	-2.81127000	31.12082000
1.60000008	-2.63533500	31.17003000
1.80000006	-1.58095500	31.17003000
2.00000005	0.17531990	31.17003000
2.20000004	2.10814500	31.17003000
2.40000003	4.04096900	31.12082000
2.60000002	5.27128500	30.61023000
2.80000000	5.09534900	29.02313000
2.99999999	3.51377900	27.39911000
3.19999998	0.70250980	27.39296000
3.39999997	-2.63533500	28.02042000
3.59999996	-5.79847400	28.15576000
3.79999994	-7.73129900	27.81127000
3.99999993	-7.73129900	29.07234000
4.19999992	-5.79847400	30.65945000
4.39999991	-2.10814500	31.53297000
4.59999990	2.28408000	31.93282000
4.79999989	6.50098400	31.07160000
4.99999987	8.96099900	29.48450000
5.19999986	9.31225400	28.21727000
5.39999985	7.37942900	27.75590000
5.59999984	3.51377900	27.70669000
5.79999983	-1.40563500	27.70669000
5.99999981	-5.79847400	27.75590000
6.19999980	-8.78567900	28.21727000
6.39999979	-9.48818900	29.43528000
6.59999978	-7.73129900	30.65945000
6.79999977	-4.21690500	31.07160000
6.99999975	0.17531990	30.70866000
7.19999974	4.04096900	29.89665000
7.39999973	6.85223900	29.48450000
7.59999972	7.73129900	29.38607000
7.79999971	6.50098400	28.97392000
7.99999970	3.86565000	28.21727000
8.19999968	0.70250980	28.26648000
8.39999967	-2.28408000	29.43528000
8.59999966	-4.56816000	30.56102000
8.79999965	-5.09534900	30.25344000
8.99999964	-4.56816000	29.13386000
9.19999962	-2.98659000	29.48450000
9.39999961	-0.87844490	30.19808000
9.59999960	0.87844490	29.89665000
9.79999959	2.10814500	29.89665000
9.99999958	2.45940000	30.19808000
10.19999956	2.10814500	29.43528000
10.39999955	1.40563500	28.67249000
10.59999954	0.52657480	29.02313000
10.79999953	-0.35125490	29.43528000
10.99999952	-0.70250980	29.89665000
11.19999951	-0.87844490	30.65945000
11.39999949	-0.87844490	30.65945000
11.59999948	-0.70250980	29.89665000
11.79999947	-0.35125490	29.48450000
11.99999946	0.00000000	29.43528000
12.19999945	0.00000000	29.43528000
12.39999943	0.00000000	29.43528000
12.59999942	-0.17531990	29.48450000
12.79999941	-0.17531990	29.89665000
12.99999940	-0.17531990	30.65945000
13.19999939	-0.17531990	30.65945000
13.39999937	-0.17531990	29.89665000
13.59999936	0.00000000	29.48450000
13.79999935	0.00000000	29.48450000
13.99999934	0.00000000	29.84744000
14.19999933	0.00000000	30.19808000
14.39999932	0.00000000	29.43528000
14.59999930	0.00000000	28.67249000
14.79999929	0.00000000	29.07234000
14.99999928	0.00000000	29.79823000
15.19999927	0.00000000	30.24729000
15.39999926	0.00000000	29.84744000
15.59999924	0.00000000	29.48450000
15.79999923	0.00000000	29.43528000
15.99999922	0.00000000	29.48450000
16.19999921	0.00000000	29.84744000
16.39999920	0.00000000	30.24729000
16.59999919	0.00000000	29.79823000
16.79999917	0.00000000	29.07234000
16.99999916	0.00000000	28.62328000
17.19999915	0.00000000	29.02313000
17.39999914	0.00000000	29.38607000
17.59999913	0.00000000	29.38607000
17.79999911	0.00000000	28.97392000
17.99999910	0.00000000	28.21727000
18.19999909	0.00000000	28.21727000
18.39999908	0.00000000	28.97392000
18.59999907	0.00000000	29.38607000
18.79999905	0.00000000	29.43528000
18.99999904	0.00000000	29.43528000
19.19999903	0.00000000	29.43528000
19.39999902	0.00000000	29.43528000
19.59999901	0.00000000	29.38607000
19.79999900	0.00000000	28.97392000
19.99999898	0.00000000	28.21727000
20.19999897	0.00000000	28.21727000
20.39999896	0.00000000	28.97392000
20.59999895	0.00000000	29.38607000
20.79999894	0.00000000	29.43528000
20.99999892	0.00000000	29.43528000
21.19999891	0.00000000	29.43528000
21.39999890	0.00000000	29.43528000
21.59999889	0.00000000	29.43528000
21.79999888	0.00000000	29.43528000
21.99999886	0.00000000	29.43528000
22.19999885	0.00000000	29.43528000
22.39999884	0.00000000	29.43528000
22.59999883	0.00000000	29.43528000
22.79999882	0.00000000	29.38607000
22.99999881	0.00000000	29.02313000
23.19999879	0.00000000	28.62328000
23.39999878	0.00000000	28.97392000
23.59999877	0.00000000	28.92470000
23.79999876	0.00000000	28.16806000
23.99999875	0.00000000	27.90354000
24.19999873	0.00000000	29.03543000
24.39999872	0.00000000	31.10851000
24.59999871	0.00000000	31.98819000
24.79999870	0.00000000	32.89862000
24.99999869	0.00000000	33.61220000
25.19999867	0.00000000	32.84941000
25.39999866	0.00000000	31.63140000
25.59999865	0.00000000	30.65945000
25.79999864	0.00000000	28.87549000
25.99999863	0.00000000	25.97195000
26.19999862	0.00000000	23.01919000
26.39999860	0.00000000	20.97687000
26.59999859	0.00000000	20.57087000
26.79999858	0.00000000	22.75467000
26.99999857	0.00000000	26.98696000
27.19999856	0.00000000	32.89862000
27.39999854	0.00000000	38.81028000
27.59999853	0.00000000	43.09793000
27.79999852	0.00000000	45.54626000
27.99999851	0.00000000	44.52510000
28.19999850	0.00000000	38.61343000
28.39999848	0.00000000	29.33686000
28.59999847	0.00000000	19.14370000
28.79999846	0.00000000	9.81791200
28.99999845	0.00000000	3.54945900
29.19999844	0.00000000	2.38065900
29.39999843	0.00000000	7.57258800
29.59999841	0.00000000	18.98991000
29.79999840	0.00000000	34.17200000
29.99999839	0.00000000	49.00344000
30.19999838	0.00000000	60.37155000
30.39999837	0.00000000	65.40969000
30.59999835	0.00000000	61.95866000
30.79999834	0.00000000	50.94119000
30.99999833	0.00000000	33.92593000
31.19999832	0.00000000	14.51156000
31.39999831	0.00000000	-2.81127000
31.59999829	0.00000000	-13.66880000
31.79999828	0.00000000	-14.53002000
31.99999827	0.00000000	-4.85974400
32.19999826	0.00000000	12.06324000
32.39999825	0.00000000	32.94783000
32.59999824	0.00000000	54.10310000
32.79999822	0.00000000	70.97072000
32.99999821	0.00000000	78.87549000
33.19999820	0.00000000	75.04921000
33.39999819	0.00000000	59.81176000
33.59999818	0.00000000	36.98326000
33.79999816	0.00000000	11.70029000
33.99999815	0.00000000	-9.48572700
34.19999814	0.00000000	-21.41978000
34.39999813	0.00000000	-23.09301000
34.59999812	0.00000000	-13.26279000
34.79999810	0.00000000	6.60679100
34.99999809	0.00000000	31.48376000
35.19999808	0.00000000	55.62869000
35.39999807	0.00000000	72.96382000
35.59999806	0.00000000	80.19192000
35.79999805	0.00000000	75.50443000
35.99999803	0.00000000	59.95940000
36.19999802	0.00000000	37.99828000
36.39999801	0.00000000	15.11442000
36.59999800	0.00000000	-3.93700800
36.79999799	0.00000000	-14.84375000
36.99999797	0.00000000	-14.48081000
37.19999796	0.00000000	-3.12500000
37.39999795	0.00000000	15.37894000
37.59999794	0.00000000	36.52190000
37.79999793	0.00000000	54.66904000
37.99999791	0.00000000	65.72342000
38.19999790	0.00000000	67.45202000
38.39999789	0.00000000	59.95940000
38.59999788	0.00000000	46.05069000
38.79999787	0.00000000	29.58292000
38.99999786	0.00000000	14.40084000
39.19999784	0.00000000	4.66904500
39.39999783	0.00000000	2.47908400
39.59999782	0.00000000	7.47416300
39.79999781	0.00000000	17.97490000
39.99999780	0.00000000	30.56102000
40.19999778	0.00000000	41.57234000
40.39999777	0.00000000	48.35138000
40.59999776	0.00000000	49.66781000
40.79999775	0.00000000	45.44168000
40.99999774	0.00000000	37.13091000
41.19999772	0.00000000	27.44832000
41.39999771	0.00000000	19.85113000
41.59999770	0.00000000	15.57579000
41.79999769	0.00000000	15.52657000
41.99999768	0.00000000	19.24212000
42.19999767	0.00000000	24.70472000
42.39999765	0.00000000	30.65945000
42.59999764	0.00000000	35.66068000
42.79999763	0.00000000	38.25049000
42.99999762	0.00000000	37.80142000
43.19999761	0.00000000	34.93479000
43.39999759	0.00000000	30.35187000
43.59999758	0.00000000	26.63017000
43.79999757	0.00000000	24.80315000
43.99999756	0.00000000	24.34178000
44.19999755	0.00000000	24.75394000
44.39999753	0.00000000	26.02116000
44.59999752	0.00000000	27.70669000
44.79999751	0.00000000	29.28765000
44.99999750	0.00000000	29.64444000
45.19999749	0.00000000	27.65748000
45.39999748	0.00000000	25.30758000
45.59999746	0.00000000	24.80315000
45.79999745	0.00000000	25.65822000
45.99999744	0.00000000	27.39911000
46.19999743	0.00000000	30.70866000
46.39999742	0.00000000	33.51993000
46.59999740	0.00000000	34.02436000
46.79999739	0.00000000	32.84941000
46.99999738	0.00000000	31.12082000
47.19999737	0.00000000	28.97392000
47.39999736	0.00000000	26.38410000
47.59999734	0.00000000	23.92962000
47.79999733	0.00000000	22.20718000
47.99999732	0.00000000	22.24409000
48.19999731	0.00000000	23.47441000
48.39999730	0.00000000	26.11959000
48.59999729	0.00000000	29.84744000
48.79999727	0.00000000	33.61220000
48.99999726	0.00000000	35.70374000
49.19999725	0.00000000	35.85138000
49.39999724	0.00000000	35.04552000
49.59999723	0.00000000	34.12278000
49.79999721	0.00000000	32.33883000
49.99999720	0.00000000	29.48450000
50.19999719	0.00000000	26.98696000
50.39999718	0.00000000	26.02116000
50.59999717	0.00000000	25.55979000
50.79999715	0.00000000	25.15994000
50.99999714	0.00000000	25.60900000
51.19999713	0.00000000	26.43332000
51.39999712	-0.17531990	27.80512000
51.59999711	0.00000000	29.89665000
51.79999710	0.00000000	32.38804000
51.99999708	0.00000000	34.07357000
52.19999707	0.00000000	34.53494000
52.39999706	0.00000000	34.17200000
52.59999705	0.00000000	33.26156000
52.79999704	0.00000000	31.93282000
52.99999702	0.00000000	29.33686000
53.19999701	0.00000000	26.02116000
53.39999700	0.00000000	23.11762000
53.59999699	0.00000000	21.84424000
53.79999698	0.00000000	22.60704000
53.99999696	0.00000000	24.29257000
54.19999695	0.00000000	26.43332000
54.39999694	0.00000000	29.02313000
54.59999693	0.00000000	31.53297000
54.79999692	0.00000000	33.66756000
54.99999691	0.00000000	34.43652000
55.19999689	0.00000000	33.61835000
55.39999688	0.00000000	31.07160000
55.59999687	0.00000000	27.75590000
55.79999686	0.00000000	24.80315000
55.99999685	0.00000000	23.11762000
56.19999683	0.00000000	23.01919000
56.39999682	0.00000000	23.88041000
56.59999681	0.00000000	25.20915000
56.79999680	0.00000000	27.80512000
56.99999679	0.00000000	31.07160000
57.19999677	0.00000000	33.61835000
57.39999676	0.00000000	34.43652000
57.59999675	0.00000000	33.61835000
57.79999674	0.00000000	31.07160000
57.99999673	0.00000000	27.75590000
58.19999672	0.00000000	24.75394000
58.39999670	0.00000000	22.65625000
58.59999669	0.00000000	21.84424000
58.79999668	0.00000000	23.16683000
58.99999667	0.00000000	26.43332000
59.19999666	0.00000000	30.24729000
59.39999664	0.00000000	33.21235000
59.59999663	0.00000000	35.34695000
59.79999662	0.00000000	35.70374000
59.99999661	0.00000000	34.07357000
60.19999660	0.00000000	31.07160000
60.39999658	0.00000000	27.29453000
60.59999657	0.00000000	23.52977000
60.79999656	0.00000000	21.38902000
60.99999655	0.00000000	20.97687000
61.19999654	0.00000000	22.25640000
61.39999653	0.00000000	25.55979000
61.59999651	0.00000000	28.92470000
61.79999650	0.00000000	31.58218000
61.99999649	0.00000000	34.12278000
62.19999648	0.00000000	35.75295000
62.39999647	0.00000000	35.75295000
62.59999645	0.00000000	34.07357000
62.79999644	0.00000000	31.12082000
62.99999643	0.00000000	27.75590000
63.19999642	0.00000000	24.80315000
63.39999641	0.00000000	23.11762000
63.59999639	0.00000000	23.01919000
63.79999638	0.00000000	23.88041000
63.99999637	0.00000000	25.15994000
64.19999636	0.00000000	27.29453000
64.39999635	0.00000000	29.38607000
64.59999634	0.00000000	31.12082000
64.79999632	0.00000000	32.43725000
64.99999631	0.00000000	33.31078000
65.19999630	0.00000000	34.12278000
65.39999629	0.00000000	34.02436000
65.59999628	0.00000000	32.38804000
65.79999626	0.00000000	29.84744000
65.99999625	0.00000000	27.29453000
66.19999624	0.00000000	24.70472000
66.39999623	0.00000000	22.60704000
66.59999622	0.00000000	21.33981000
66.79999620	0.00000000	21.38902000
66.99999619	0.00000000	23.06841000
67.19999618	0.00000000	26.02116000
67.39999617	0.00000000	29.43528000
67.59999616	0.00000000	32.84941000
67.79999615	0.00000000	35.75295000
67.99999613	0.00000000	37.02633000
68.19999612	0.00000000	36.16510000
68.39999611	0.00000000	33.66142000
68.59999610	0.00000000	29.79823000
68.79999609	0.00000000	25.60900000
68.99999607	0.00000000	21.79503000
69.19999606	0.00000000	19.70349000
69.39999605	0.00000000	19.65428000
69.59999604	0.00000000	21.33981000
69.79999603	0.00000000	24.34178000
69.99999601	0.00000000	28.16806000
70.19999600	0.00000000	32.38804000
70.39999599	0.00000000	35.75295000
70.59999598	0.00000000	37.48769000
70.79999597	0.00000000	37.48769000
70.99999596	0.00000000	35.75295000
71.19999594	0.00000000	32.38804000
71.39999593	0.00000000	28.16806000
71.59999592	0.00000000	24.39099000
71.79999591	0.00000000	21.79503000
71.99999590	0.00000000	20.97687000
72.19999588	0.00000000	21.74582000
72.39999587	0.00000000	23.92962000
72.59999586	0.00000000	26.89468000
72.79999585	0.00000000	30.70866000
72.99999584	0.00000000	34.02436000
73.19999582	0.00000000	35.80217000
73.39999581	0.00000000	36.21432000
73.59999580	0.00000000	35.34695000
73.79999579	0.00000000	32.80019000
73.99999578	0.00000000	29.43528000
74.19999577	0.00000000	26.02116000
74.39999575	0.00000000	23.11762000
74.59999574	0.00000000	21.84424000
74.79999573	0.00000000	22.65625000
74.99999572	0.00000000	24.75394000
75.19999571	0.00000000	27.75590000
75.39999569	0.00000000	31.12082000
75.59999568	0.00000000	34.07357000
75.79999567	0.00000000	35.70374000
75.99999566	0.00000000	35.29773000
76.19999565	0.00000000	32.75098000
76.39999563	0.00000000	29.02313000
76.59999562	0.00000000	25.15994000
76.79999561	0.00000000	22.19488000
76.99999560	0.00000000	20.10950000
77.19999559	0.00000000	20.15871000
77.39999558	0.00000000	22.65625000
77.59999556	0.00000000	26.48253000
77.79999555	0.00000000	31.17003000
77.99999554	0.00000000	35.75910000
78.19999553	0.00000000	38.71186000
78.39999552	0.00000000	39.17323000
78.59999550	0.00000000	37.43848000
78.79999549	0.00000000	33.61835000
78.99999548	0.00000000	28.11885000
79.19999547	0.00000000	22.70546000
79.39999546	0.00000000	18.84227000
79.59999544	0.00000000	17.61196000
79.79999543	0.00000000	18.79306000
79.99999542	0.00000000	22.24409000
80.19999541	0.00000000	26.88853000
80.39999540	0.00000000	32.43725000
80.59999539	0.00000000	37.38927000
80.79999537	0.00000000	39.98523000
80.99999536	0.00000000	39.58538000
81.19999535	0.00000000	37.03248000
81.39999534	0.00000000	32.28962000
81.59999533	0.00000000	26.02116000
81.79999531	0.00000000	20.06029000
81.99999530	0.00000000	15.87721000
82.19999529	0.00000000	14.10556000
82.39999528	0.00000000	15.41585000
82.59999527	0.00000000	18.74385000
82.79999525	0.00000000	23.92962000
82.99999524	0.00000000	29.79823000
83.19999523	0.00000000	35.34695000
83.39999522	0.00000000	39.17323000
83.59999521	0.00000000	40.90182000
83.79999520	0.00000000	40.49582000
83.99999518	0.00000000	37.89985000
84.19999517	0.00000000	33.66756000
84.39999516	0.00000000	28.16806000
84.59999515	0.00000000	23.11762000
84.79999514	0.00000000	19.65428000
84.99999512	0.00000000	17.92569000
85.19999511	0.00000000	17.97490000
85.39999510	0.00000000	20.11565000
85.59999509	0.00000000	24.39099000
85.79999508	0.00000000	29.84744000
85.99999506	0.00000000	35.39616000
86.19999505	0.00000000	39.63459000
86.39999504	0.00000000	42.18134000
86.59999503	0.00000000	42.13213000
86.79999502	0.00000000	39.27165000
86.99999501	0.00000000	34.94709000
87.19999499	0.00000000	29.84129000
87.39999498	0.00000000	23.93578000
87.59999497	0.00000000	19.75271000
87.79999496	0.00000000	17.97490000
87.99999495	0.00000000	18.38090000
88.19999493	0.00000000	20.97687000
88.39999492	0.00000000	25.15994000
88.59999491	0.00000000	30.25344000
88.79999490	0.00000000	34.48573000
88.99999489	0.00000000	37.53691000
89.19999487	0.00000000	39.17323000
89.39999486	0.00000000	38.71186000
89.59999485	0.00000000	35.75910000
89.79999484	0.00000000	31.17003000
89.99999483	0.00000000	26.48253000
90.19999482	0.00000000	22.60704000
90.39999480	0.00000000	19.65428000
90.59999479	0.00000000	18.43012000
90.79999478	0.00000000	19.60507000
90.99999477	0.00000000	22.14567000
91.19999476	0.00000000	25.11073000
91.39999474	0.00000000	28.51870000
91.59999473	0.00000000	31.07160000
91.79999472	0.00000000	32.80019000
91.99999471	0.00000000	33.56299000
92.19999470	0.00000000	32.38804000
92.39999468	0.00000000	30.30265000
92.59999467	0.00000000	28.56791000
92.79999466	0.00000000	26.38410000
92.99999465	0.00000000	24.34178000
93.19999464	0.00000000	23.06841000
93.39999463	0.00000000	23.06841000
93.59999461	0.00000000	24.29257000
93.79999460	0.00000000	25.92274000
93.99999459	0.00000000	27.19611000
94.19999458	0.00000000	27.70669000
94.39999457	0.00000000	28.21727000
94.59999455	0.00000000	29.38607000
94.79999454	0.00000000	30.19808000
94.99999453	0.00000000	29.79823000
95.19999452	0.00000000	29.07234000
95.39999451	0.00000000	28.62328000
95.59999449	0.00000000	28.97392000
95.79999448	0.00000000	28.92470000
95.99999447	0.00000000	28.16806000
96.19999446	0.00000000	27.70669000
96.39999445	0.00000000	27.29453000
96.59999444	0.00000000	26.89468000
96.79999442	0.00000000	27.29453000
96.99999441	0.00000000	27.65748000
97.19999440	0.00000000	27.70669000
97.39999439	0.00000000	27.75590000
97.59999438	0.00000000	28.21727000
97.79999436	0.00000000	29.43528000
97.99999435	0.00000000	30.65945000
98.19999434	0.00000000	31.12082000
98.39999433	0.00000000	31.12082000
98.59999432	0.00000000	30.65945000
98.79999430	0.00000000	29.43528000
98.99999429	0.00000000	28.16806000
99.19999428	0.00000000	27.29453000
99.39999427	0.00000000	26.43332000
99.59999426	0.00000000	26.07037000
99.79999425	0.00000000	26.48253000
99.99999423	0.00000000	27.70669000
100.19999422	0.00000000	28.97392000
100.39999421	0.00000000	29.84744000
100.59999420	0.00000000	30.70866000
100.79999419	0.00000000	31.12082000
100.99999417	0.00000000	31.12082000
101.19999416	0.00000000	30.65945000
101.39999415	0.00000000	29.38607000
101.59999414	0.00000000	27.75590000
101.79999413	0.00000000	26.48253000
101.99999411	0.00000000	26.02116000
102.19999410	0.00000000	25.97195000
102.39999409	0.00000000	26.02116000
102.59999408	0.00000000	26.43332000
102.79999407	0.00000000	27.29453000
102.99999406	0.00000000	28.11885000
103.19999404	0.00000000	28.97392000
103.39999403	0.00000000	29.38607000
103.59999402	0.00000000	29.38607000
103.79999401	0.00000000	28.97392000
103.99999400	0.00000000	28.16806000
104.19999398	0.00000000	27.70669000
104.39999397	0.00000000	27.24532000
104.59999396	0.00000000	26.38410000
104.79999395	0.00000000	25.60900000
104.99999394	0.00000000	25.20915000
105.19999392	0.00000000	26.02116000
105.39999391	0.00000000	27.24532000
105.59999390	0.00000000	28.11885000
105.79999389	0.00000000	28.97392000
105.99999388	0.00000000	29.38607000
106.19999387	0.00000000	29.43528000
106.39999385	0.00000000	29.38607000
106.59999384	0.00000000	28.92470000
106.79999383	0.00000000	27.70669000
106.99999382	0.00000000	26.48253000
107.19999381	0.00000000	25.97195000
107.39999379	0.00000000	25.55979000
107.59999378	0.00000000	25.20915000
107.79999377	0.00000000	26.02116000
107.99999376	0.00000000	27.24532000
108.19999375	0.00000000	28.16806000
108.39999374	0.00000000	29.43528000
108.59999372	0.00000000	30.65945000
108.79999371	0.00000000	31.07160000
108.99999370	0.00000000	30.70866000
