Time	Channel A	Channel B	Channel C
(us)	(V)	(mV)	(mV)

-4.49999956	0.00000000	-1.58095500	-7.89247000
-4.29999957	0.00000000	-1.58095500	-7.89247000
-4.09999958	0.00000000	-1.58095500	-7.84940900
-3.89999959	0.00000000	-1.62401600	-7.51722400
-3.69999960	0.00000000	-1.95620100	-7.14812900
-3.49999962	0.00000000	-2.36835600	-7.51722400
-3.29999963	0.00000000	-2.33144700	-7.84940900
-3.09999964	0.00000000	-2.36835600	-7.89247000
-2.89999965	0.00000000	-1.99926200	-7.89247000
-2.69999966	0.00000000	-1.99926200	-7.89247000
-2.49999968	0.00000000	-2.36835600	-7.89247000
-2.29999969	0.00000000	-2.37450800	-7.89247000
-2.09999970	0.00000000	-2.74360200	-7.89247000
-1.89999971	0.00000000	-2.69439000	-7.89247000
-1.69999972	0.00000000	-2.04847400	-7.89247000
-1.49999973	0.00000000	-1.99926200	-7.89247000
-1.29999975	0.00000000	-2.32529500	-7.89247000
-1.09999976	0.00000000	-1.95620100	-7.89247000
-0.89999977	0.00000000	-1.62401600	-7.89247000
-0.69999978	0.00000000	-1.58095500	-7.89247000
-0.49999979	0.00000000	-1.58095500	-7.89247000
-0.29999981	0.31803640	-1.62401600	-7.89247000
-0.09999982	0.63668800	-1.99926200	-7.89247000
0.10000017	0.95533960	-2.69439000	-7.89247000
0.30000016	0.95533960	-2.69439000	-7.89247000
0.50000015	0.95533960	-2.04847400	-7.89247000
0.70000013	0.47736220	-2.04847400	-7.89247000
0.90000012	-0.31803640	-2.69439000	-7.89247000
1.10000011	-1.27399100	-2.69439000	-7.89247000
1.30000010	-2.22994600	-2.04847400	-7.84940900
1.50000009	-2.70792300	-1.99926200	-7.47416300
1.70000008	-2.54859700	-2.32529500	-6.77903500
1.90000006	-1.59264300	-1.95620100	-6.72982200
2.10000005	0.15871060	-1.67322800	-7.09891700
2.30000004	2.22994600	-1.95620100	-7.10506800
2.50000003	4.14124000	-2.32529500	-7.51722400
2.70000002	5.25652100	-1.99926200	-7.84940900
2.90000000	5.09719500	-2.04847400	-7.89247000
3.09999999	3.34522600	-2.74360200	-7.89247000
3.29999998	0.47736220	-3.11884800	-7.89247000
3.49999997	-3.02657500	-3.16190900	-7.89247000
3.69999996	-6.05315000	-3.11884800	-7.89247000
3.89999994	-7.80511800	-2.74360200	-7.84940900
4.09999993	-7.64579200	-1.99926200	-7.47416300
4.29999992	-5.57517200	-1.62401600	-6.72982200
4.49999991	-1.75196900	-1.58095500	-6.40378900
4.69999990	2.70792300	-1.58095500	-6.72982200
4.89999989	6.69045300	-1.62401600	-7.47416300
5.09999987	9.07972400	-1.99926200	-7.84940900
5.29999986	9.23905000	-2.74360200	-7.89247000
5.49999985	7.16781500	-3.11884800	-7.89247000
5.69999984	3.18590100	-3.11884800	-7.89247000
5.89999983	-1.59264300	-2.74360200	-7.89247000
6.09999981	-5.89382400	-2.04847400	-7.89247000
6.29999980	-8.76107300	-1.99926200	-7.84940900
6.49999979	-9.39837600	-2.27608300	-7.47416300
6.69999978	-7.64579200	-1.58095500	-6.72982200
6.89999977	-3.98191400	-0.92888770	-6.40378900
7.09999975	0.31803640	-1.58095500	-6.72982200
7.29999974	4.30056600	-2.32529500	-7.47416300
7.49999973	7.00848900	-2.33144700	-7.84940900
7.69999972	7.80511800	-2.41141700	-7.89247000
7.89999971	6.53112700	-2.37450800	-7.89247000
8.09999970	3.98191400	-2.78666300	-7.89247000
8.29999968	0.63668800	-3.11884800	-7.89247000
8.49999967	-2.38927200	-3.11884800	-7.89247000
8.69999966	-4.45989200	-2.74360200	-7.89247000
8.89999965	-5.25652100	-2.04847400	-7.89247000
9.09999964	-4.61921700	-1.99926200	-7.89247000
9.29999962	-3.02657500	-2.32529500	-7.89247000
9.49999961	-0.95533960	-1.95620100	-7.89247000
9.69999960	0.79601380	-1.67322800	-7.89247000
9.89999959	2.07062000	-1.99926200	-7.89247000
10.09999958	2.54859700	-2.69439000	-7.89247000
10.29999956	2.22994600	-2.74360200	-7.89247000
10.49999955	1.59264300	-2.41756900	-7.89247000
10.69999954	0.63668800	-2.74360200	-7.89247000
10.89999953	-0.15871060	-2.69439000	-7.89247000
11.09999952	-0.63668800	-2.04847400	-7.89247000
11.29999951	-0.95533960	-2.04847400	-7.89247000
11.49999949	-0.95533960	-2.69439000	-7.89247000
11.69999948	-0.79601380	-2.74360200	-7.89247000
11.89999947	-0.47736220	-2.41756900	-7.89247000
12.09999946	-0.15871060	-2.78666300	-7.89247000
12.29999945	-0.15871060	-3.11884800	-7.89247000
12.49999943	-0.15871060	-3.16190900	-7.89247000
12.69999942	0.00000000	-3.16190900	-7.89247000
12.89999941	0.00000000	-3.16190900	-7.89247000
13.09999940	0.15871060	-3.11884800	-7.89247000
13.29999939	0.00000000	-2.78666300	-7.89247000
13.49999937	0.00000000	-2.41756900	-7.89247000
13.69999936	0.00000000	-2.78666300	-7.89247000
13.89999935	0.00000000	-3.06963600	-7.89247000
14.09999934	-0.15871060	-2.78666300	-7.89247000
14.29999933	-0.15871060	-2.37450800	-7.89247000
14.49999932	-0.15871060	-2.41141700	-7.89247000
14.69999930	0.00000000	-2.33144700	-7.89247000
14.89999929	0.00000000	-2.41141700	-7.89247000
15.09999928	0.00000000	-2.37450800	-7.89247000
15.29999927	0.00000000	-2.78666300	-7.89247000
15.49999926	0.00000000	-3.11884800	-7.89247000
15.69999924	0.00000000	-3.16190900	-7.89247000
15.89999923	0.00000000	-3.16190900	-7.89247000
16.09999922	0.00000000	-3.16190900	-7.89247000
16.29999921	0.00000000	-3.11884800	-7.89247000
16.49999920	0.00000000	-2.74360200	-7.89247000
16.69999919	-0.15871060	-1.99926200	-7.89247000
16.89999917	0.00000000	-1.62401600	-7.89247000
17.09999916	0.00000000	-1.58095500	-7.89247000
17.29999915	0.00000000	-1.53789400	-7.89247000
17.49999914	0.00000000	-1.20570900	-7.89247000
17.69999913	0.00000000	-0.83661410	-7.89247000
17.89999911	0.00000000	-1.24877000	-7.89247000
18.09999910	0.00000000	-1.99926200	-7.89247000
18.29999909	0.00000000	-3.20497000	-7.89247000
18.49999908	0.00000000	-4.74286400	-7.89247000
18.69999907	0.00000000	-6.28075700	-7.89247000
18.89999905	0.00000000	-7.43725300	-7.89247000
19.09999904	-0.15871060	-7.76943800	-7.89247000
19.29999903	0.00000000	-6.97588500	-7.89247000
19.49999902	0.00000000	-4.60752900	-7.89247000
19.69999901	0.00000000	-1.11343500	-7.89247000
19.89999900	0.00000000	3.11884800	-7.89247000
20.09999898	0.00000000	6.93282500	-7.89247000
20.29999897	0.00000000	8.83981200	-7.89247000
20.49999896	0.00000000	8.42150500	-7.89247000
20.69999895	0.00000000	5.25959600	-7.89247000
20.89999894	0.00000000	-0.55364170	-7.89247000
21.09999892	0.00000000	-7.90477300	-7.89247000
21.29999891	0.00000000	-15.25591000	-7.89247000
21.49999890	0.00000000	-20.97687000	-7.89247000
21.69999889	0.00000000	-23.20989000	-7.89247000
21.89999888	0.00000000	-20.47244000	-7.89247000
22.09999886	0.00000000	-13.07210000	-7.89247000
22.29999885	0.00000000	-2.23302100	-7.89247000
22.49999884	0.00000000	10.18086000	-7.89247000
22.69999883	0.00000000	21.30905000	-7.89247000
22.89999882	0.00000000	28.56176000	-7.84940900
23.09999881	0.00000000	28.84473000	-7.47416300
23.29999879	0.00000000	21.49360000	-6.72982200
23.49999878	0.00000000	7.91092400	-6.35457700
23.69999877	0.00000000	-9.48572700	-6.31151500
23.89999876	0.00000000	-26.83932000	-6.31151500
24.09999875	0.00000000	-39.91757000	-6.31151500
24.29999873	0.00000000	-45.22638000	-6.35457700
24.49999872	0.00000000	-40.52657000	-6.77903500
24.69999871	0.00000000	-26.24262000	-7.98474400
24.89999870	0.00000000	-5.77017700	-9.84867000
25.09999869	0.00000000	16.28322000	-11.79257000
25.29999867	0.00000000	35.17470000	-12.91215000
25.49999866	0.00000000	46.33981000	-13.28125000
25.69999865	0.00000000	46.67199000	-12.07554000
25.89999864	0.00000000	35.82677000	-9.38115100
26.09999863	0.00000000	15.68036000	-5.89320800
26.29999862	0.00000000	-9.35039300	-1.99311000
26.49999860	0.00000000	-33.26156000	1.44562000
26.69999859	0.00000000	-49.87696000	3.71555100
26.89999858	0.00000000	-55.69020000	3.67249000
27.09999857	0.00000000	-49.50172000	0.93503930
27.29999856	0.00000000	-32.56643000	-4.12770700
27.49999854	0.00000000	-9.39960600	-11.14050000
27.69999853	0.00000000	14.60999000	-18.76845000
27.89999852	0.00000000	34.70718000	-24.89542000
28.09999851	0.00000000	46.29675000	-27.22072000
28.29999850	0.00000000	46.71506000	-25.63976000
28.49999848	0.00000000	36.33735000	-20.10950000
28.69999847	0.00000000	17.82111000	-10.40846000
28.89999846	0.00000000	-4.18922200	1.44562000
29.09999845	0.00000000	-24.70472000	12.26624000
29.29999844	0.00000000	-39.40699000	19.24212000
29.49999843	0.00000000	-45.26944000	21.51206000
29.69999841	0.00000000	-41.49852000	17.89493000
29.89999840	0.00000000	-30.00123000	7.81250000
30.09999839	0.00000000	-14.09326000	-6.82209600
30.29999838	0.00000000	2.98351400	-22.61934000
30.49999837	0.00000000	18.42397000	-35.77140000
30.69999835	0.00000000	28.51870000	-43.44242000
30.89999834	0.00000000	31.31151000	-43.80536000
31.09999833	0.00000000	27.49138000	-36.05438000
31.29999832	0.00000000	17.77190000	-22.20103000
31.49999831	0.00000000	4.27534400	-5.11195900
31.69999829	0.00000000	-10.00246000	11.85408000
31.89999828	0.00000000	-21.62893000	25.36909000
32.09999827	0.00000000	-28.28494000	31.87746000
32.29999826	0.00000000	-29.49065000	30.01353000
32.49999825	0.00000000	-25.21530000	20.30635000
32.69999824	0.00000000	-16.36934000	4.87819900
32.89999822	0.00000000	-5.16117100	-13.28125000
33.09999821	0.00000000	5.67790300	-29.91511000
33.29999820	0.00000000	14.19168000	-41.90453000
33.49999819	0.00000000	18.42397000	-46.91806000
33.69999818	0.00000000	17.35359000	-43.44242000
33.89999816	0.00000000	12.00172000	-32.70177000
34.09999815	0.00000000	4.27534400	-17.18750000
34.29999814	0.00000000	-4.27534400	-0.22760820
34.49999813	0.00000000	-11.95866000	14.81914000
34.69999812	0.00000000	-16.97834000	24.11417000
34.89999810	0.00000000	-17.77190000	26.11343000
35.09999809	0.00000000	-14.74532000	21.09375000
35.29999808	0.00000000	-8.97514600	9.89788300
35.49999807	0.00000000	-2.04847400	-4.73671200
35.69999806	0.00000000	4.09694900	-19.37131000
35.89999805	0.00000000	7.95398600	-30.56717000
36.09999803	0.00000000	8.37844500	-35.63607000
36.29999802	0.00000000	5.72711600	-34.14124000
36.49999801	0.00000000	1.11343500	-26.80241000
36.69999800	0.00000000	-4.27534400	-15.27436000
36.89999799	0.00000000	-8.88902600	-2.59596400
37.09999797	0.00000000	-11.58341000	7.76943800
37.29999796	0.00000000	-11.62648000	13.19513000
37.49999795	0.00000000	-9.30733200	12.45694000
37.69999794	0.00000000	-5.43799200	6.36687900
37.89999793	0.00000000	-0.41830710	-3.24803100
38.09999791	0.00000000	4.14616100	-13.56422000
38.29999790	0.00000000	6.88361200	-21.60433000
38.49999789	0.00000000	7.30807100	-24.66781000
38.69999788	0.00000000	5.77017700	-22.06570000
38.89999787	0.00000000	2.60826800	-15.18824000
39.09999786	0.00000000	-1.99926200	-6.31151500
39.29999784	0.00000000	-6.97588500	2.46678100
39.49999783	0.00000000	-10.46998000	8.55068800
39.69999782	0.00000000	-12.09400000	9.29502900
39.89999781	0.00000000	-12.05093000	4.74286400
40.09999780	0.00000000	-10.13779000	-3.70939900
40.29999778	0.00000000	-6.65600300	-13.65650000
40.49999777	0.00000000	-2.74360200	-22.06570000
40.69999776	0.00000000	1.53789400	-26.34104000
40.89999775	0.00000000	5.35187000	-25.55364000
41.09999774	0.00000000	7.30807100	-20.20177000
41.29999772	0.00000000	7.35113100	-11.33120000
41.49999771	0.00000000	5.77017700	-1.75319900
41.69999770	0.00000000	2.69439000	6.36687900
41.89999769	0.00000000	-1.20570900	10.92520000
42.09999768	0.00000000	-5.07504900	10.54995000
42.29999767	0.00000000	-8.55684000	5.20423200
42.49999765	0.00000000	-10.46998000	-3.20497000
42.69999764	0.00000000	-10.55610000	-12.03248000
42.89999763	0.00000000	-9.39345400	-19.00221000
43.09999762	0.00000000	-7.43725300	-22.53322000
43.29999761	0.00000000	-4.74286400	-22.57628000
43.49999759	0.00000000	-2.04847400	-19.46358000
43.69999758	0.00000000	-0.09227362	-13.69956000
43.89999757	0.00000000	1.11343500	-6.82209600
44.09999756	0.00000000	1.53789400	-1.06422200
44.29999755	0.00000000	1.53789400	2.09153500
44.49999753	0.00000000	1.16264800	2.55905500
44.69999752	0.00000000	0.41830710	1.02116100
44.89999751	0.00000000	0.04306102	-2.08538400
45.09999750	0.00000000	-0.04306102	-6.26845500
45.29999749	0.00000000	-0.46751960	-10.11934000
45.49999748	0.00000000	-1.67322800	-12.49385000
45.69999746	0.00000000	-3.62942900	-13.69956000
45.89999745	0.00000000	-6.32381900	-13.65650000
46.09999744	0.00000000	-9.01820900	-12.11860000
46.29999743	0.00000000	-10.93135000	-9.47342500
46.49999742	0.00000000	-11.67569000	-6.77903500
46.69999740	0.00000000	-10.46998000	-4.82283400
46.89999739	0.00000000	-7.35113100	-3.62327700
47.09999738	0.00000000	-2.65132900	-3.24803100
47.29999737	0.00000000	3.11884800	-3.66633800
47.49999736	0.00000000	8.51377900	-5.19808000
47.69999734	0.00000000	11.91560000	-7.51722400
47.89999733	0.00000000	12.27854000	-9.84867000
48.09999732	0.00000000	8.75369100	-12.11860000
48.29999731	0.00000000	2.23302100	-13.28125000
48.49999730	0.00000000	-5.90551100	-12.91215000
48.69999729	0.00000000	-13.63189000	-11.74951000
48.89999727	0.00000000	-19.39591000	-9.38115100
49.09999726	0.00000000	-21.62893000	-6.31151500
49.29999725	0.00000000	-18.93455000	-3.24803100
49.49999724	0.00000000	-12.05093000	-0.97194880
49.69999723	0.00000000	-3.16190900	-0.59670270
49.89999721	0.00000000	5.77017700	-2.08538400
50.09999720	0.00000000	13.02903000	-4.82283400
50.29999719	0.00000000	16.46776000	-8.31077700
50.49999718	0.00000000	14.56693000	-12.16166000
50.69999717	0.00000000	8.46456700	-15.18824000
50.89999715	0.00000000	-0.04306102	-16.39395000
51.09999714	0.00000000	-8.88902600	-15.60654000
51.29999713	0.00000000	-15.85876000	-13.28125000
51.49999712	0.00000000	-19.30979000	-9.43036400
51.69999711	0.00000000	-18.55930000	-5.19808000
51.89999710	0.00000000	-13.53962000	-1.71013800
52.09999708	0.00000000	-5.90551100	0.60285430
52.29999707	0.00000000	2.18996000	0.97810030
52.49999706	0.00000000	8.32923100	-0.59670270
52.69999705	0.00000000	11.07283000	-4.04158400
52.89999704	0.00000000	9.91018600	-8.58759800
53.09999702	0.00000000	5.30265700	-12.07554000
53.29999701	0.00000000	-1.58095500	-14.07480000
53.49999700	0.00000000	-8.46456700	-14.81299000
53.69999699	0.00000000	-13.12131000	-13.65650000
53.89999698	0.00000000	-14.70226000	-11.00517000
54.09999696	0.00000000	-13.12131000	-7.93553100
54.29999695	0.00000000	-8.51377900	-5.24729300
54.49999694	0.00000000	-2.04847400	-3.70939900
54.69999693	0.00000000	3.72170300	-3.70939900
54.89999692	0.00000000	7.21579700	-5.19808000
55.09999691	0.00000000	8.00319800	-7.47416300
55.29999689	0.00000000	5.67790300	-9.33809000
55.49999688	0.00000000	1.11343500	-10.11934000
55.69999687	0.00000000	-4.27534400	-9.38115100
55.89999686	0.00000000	-8.88902600	-7.84940900
56.09999685	0.00000000	-11.62648000	-5.93626900
56.29999683	0.00000000	-12.00172000	-4.03543200
56.49999682	0.00000000	-10.09473000	-3.33415300
56.69999681	0.00000000	-6.23154500	-4.08464600
56.89999680	0.00000000	-1.62401600	-6.40378900
57.09999679	0.00000000	2.60826800	-9.47342500
57.29999677	0.00000000	5.25959600	-12.58612000
57.49999676	0.00000000	5.30265700	-15.23130000
57.69999675	0.00000000	3.06963600	-16.30167000
57.89999674	0.00000000	0.00000000	-14.72072000
58.09999673	0.00000000	-3.11884800	-10.53765000
58.29999672	0.00000000	-5.81323800	-5.15501900
58.49999670	0.00000000	-7.35113100	-0.13533460
58.69999669	0.00000000	-7.39419200	3.67249000
58.89999668	0.00000000	-6.28075700	4.78592500
59.09999667	0.00000000	-4.74286400	2.46678100
59.29999666	0.00000000	-3.16190900	-2.50369100
59.49999664	0.00000000	-1.62401600	-9.09817800
59.69999663	0.00000000	-0.46751960	-15.60654000
59.89999662	0.00000000	-0.09227362	-20.62008000
60.09999661	0.00000000	-0.46751960	-22.48400000
60.29999660	0.00000000	-1.58095500	-20.57702000
60.49999658	0.00000000	-2.74360200	-15.18824000
60.69999657	0.00000000	-3.49409400	-7.89247000
60.89999656	0.00000000	-3.85703700	-0.51058070
61.09999655	0.00000000	-3.11884800	5.62253900
61.29999654	0.00000000	-2.04847400	9.01205700
61.49999653	0.00000000	-1.62401600	7.85556000
61.69999651	0.00000000	-1.58095500	2.51599400
61.89999650	0.00000000	-1.67322800	-5.20423200
62.09999649	0.00000000	-2.41756900	-13.65650000
62.29999648	0.00000000	-3.94931100	-20.57702000
62.49999647	0.00000000	-5.07504900	-24.10802000
62.69999645	0.00000000	-5.85629900	-24.10802000
62.89999644	0.00000000	-5.85629900	-20.57702000
63.09999643	0.00000000	-5.07504900	-13.65650000
63.29999642	0.00000000	-3.90625000	-5.24729300
63.49999641	0.00000000	-1.95620100	2.09153500
63.69999639	0.00000000	-0.09227362	6.74212600
63.89999638	0.00000000	1.07037400	7.94783400
64.09999637	0.00000000	1.11343500	5.62253900
64.29999636	0.00000000	0.33218500	0.64591530
64.49999635	0.00000000	-0.83661410	-5.94242000
64.69999634	0.00000000	-2.78666300	-12.49385000
64.89999632	0.00000000	-4.69980300	-17.92569000
65.09999631	0.00000000	-6.23154500	-20.99532000
65.29999630	0.00000000	-6.97588500	-21.03838000
65.49999629	0.00000000	-6.23154500	-18.35015000
65.69999628	0.00000000	-4.69980300	-13.79183000
65.89999626	0.00000000	-2.78666300	-8.72908400
66.09999625	0.00000000	-0.88582670	-4.45374000
66.29999624	0.00000000	-0.13533460	-0.92888770
66.49999623	0.00000000	-0.46751960	1.02116100
66.69999622	0.00000000	-1.62401600	1.43946800
66.89999620	0.00000000	-3.16190900	0.69512790
67.09999619	0.00000000	-4.74286400	-1.29183100
67.29999618	0.00000000	-6.18848400	-3.94931100
67.49999617	0.00000000	-6.55757800	-7.14197800
67.69999616	0.00000000	-5.02583600	-10.22392000
67.89999615	0.00000000	-2.74360200	-13.37352000
68.09999613	0.00000000	-0.04306102	-15.64960000
68.29999612	0.00000000	2.23302100	-16.85531000
68.49999611	0.00000000	2.98351400	-16.81225000
68.69999610	0.00000000	2.18996000	-15.27436000
68.89999609	0.00000000	-0.55364170	-12.49385000
69.09999607	0.00000000	-4.74286400	-8.63681000
69.29999606	0.00000000	-8.97514600	-3.99237200
69.49999605	0.00000000	-12.05093000	-0.13533460
69.69999604	0.00000000	-13.16437000	2.60211600
69.89999603	0.00000000	-11.62648000	3.67249000
70.09999601	0.00000000	-7.76943800	2.14074800
70.29999600	0.00000000	-2.74360200	-1.71013800
70.49999599	0.00000000	2.65132900	-6.72982200
70.69999598	0.00000000	6.84055100	-12.16166000
70.89999597	0.00000000	8.46456700	-16.76919000
71.09999596	0.00000000	7.67716500	-19.46358000
71.29999594	0.00000000	4.92741100	-19.46358000
71.49999593	0.00000000	-0.13533460	-16.81225000
71.69999592	0.00000000	-6.23154500	-12.58612000
71.89999591	0.00000000	-11.67569000	-7.93553100
72.09999590	0.00000000	-15.12057000	-3.66633800
72.29999588	0.00000000	-15.90797000	-0.59670270
72.49999587	0.00000000	-13.58268000	0.60285430
72.69999586	0.00000000	-8.97514600	-0.17839570
72.89999585	0.00000000	-3.16190900	-2.46063000
73.09999584	0.00000000	2.60826800	-5.89320800
73.29999582	0.00000000	6.88361200	-8.96284400
73.49999581	0.00000000	8.83981200	-10.91289000
73.69999580	0.00000000	8.42150500	-11.70029000
73.89999579	0.00000000	5.35187000	-10.96211000
74.09999578	0.00000000	0.37524600	-9.47342500
74.29999577	0.00000000	-4.65059000	-7.93553100
74.49999575	0.00000000	-8.93208600	-6.82209600
74.69999574	0.00000000	-11.62648000	-6.82209600
74.89999573	0.00000000	-12.05093000	-7.93553100
75.09999572	0.00000000	-10.55610000	-9.42421200
75.29999571	0.00000000	-7.81250000	-10.58686000
75.49999569	0.00000000	-4.36761800	-10.91289000
75.69999568	0.00000000	-0.88582670	-10.11934000
75.89999567	0.00000000	1.40255900	-7.80019600
76.09999566	0.00000000	2.23302100	-4.77977300
76.29999565	0.00000000	1.48868100	-2.08538400
76.49999563	0.00000000	0.00000000	-0.55364170
76.69999562	0.00000000	-1.53789400	-0.59670270
76.89999561	0.00000000	-2.69439000	-2.54675200
77.09999560	0.00000000	-3.11884800	-6.40378900
77.29999559	0.00000000	-3.16190900	-11.00517000
77.49999558	0.00000000	-3.16190900	-15.27436000
77.69999556	0.00000000	-3.16190900	-18.35015000
77.89999555	0.00000000	-3.20497000	-19.46358000
78.09999554	0.00000000	-3.58021600	-17.88263000
78.29999553	0.00000000	-4.32455700	-13.65650000
78.49999552	0.00000000	-4.74286400	-7.89247000
78.69999550	0.00000000	-5.11811000	-2.12844500
78.89999549	0.00000000	-5.43799200	2.14074800
79.09999548	0.00000000	-4.60752900	4.09079700
79.29999547	0.00000000	-2.74360200	3.71555100
79.49999546	0.00000000	-0.41830710	0.97810030
79.69999544	0.00000000	1.48868100	-3.62327700
79.89999543	0.00000000	2.65132900	-9.00590400
