Time	Channel A	Channel B
(us)	(V)	(mV)

-4.49999956	0.00000000	27.29453000
-4.29999957	0.00000000	26.89468000
-4.09999958	0.00000000	27.29453000
-3.89999959	0.00000000	27.65748000
-3.69999960	0.00000000	27.70669000
-3.49999962	0.00000000	27.70669000
-3.29999963	0.00000000	27.70669000
-3.09999964	0.00000000	27.70669000
-2.89999965	0.00000000	27.65748000
-2.69999966	0.00000000	27.29453000
-2.49999968	0.00000000	26.89468000
-2.29999969	0.00000000	27.29453000
-2.09999970	0.00000000	27.65748000
-1.89999971	0.00000000	27.70669000
-1.69999972	0.00000000	27.70669000
-1.49999973	0.00000000	27.70669000
-1.29999975	0.00000000	27.70669000
-1.09999976	0.00000000	27.70669000
-0.89999977	0.00000000	27.70669000
-0.69999978	0.00000000	27.65748000
-0.49999979	0.00000000	27.29453000
-0.29999981	0.35125490	26.84547000
-0.09999982	0.70250980	26.83317000
0.10000017	1.05376500	26.43332000
0.30000016	1.05376500	26.43332000
0.50000015	0.70250980	26.78395000
0.70000013	0.00000000	26.43332000
0.90000012	-0.87844490	26.48253000
1.10000011	-1.93282500	27.24532000
1.30000010	-2.63533500	27.65748000
1.50000009	-2.81127000	27.70669000
1.70000008	-2.10814500	27.70669000
1.90000006	-0.70250980	27.70669000
2.10000005	1.40563500	27.70669000
2.30000004	3.51377900	27.65748000
2.50000003	4.91941500	27.19611000
2.70000002	5.27128500	26.02116000
2.90000000	4.21690500	25.11073000
3.09999999	1.75689000	24.74163000
3.29999998	-1.58095500	24.34793000
3.49999997	-4.74409400	25.60900000
3.69999996	-7.20410900	27.14690000
3.89999994	-8.08255400	27.60827000
4.09999993	-6.67691900	27.29453000
4.29999992	-3.51377900	26.89468000
4.49999991	0.70250980	27.24532000
4.69999990	5.09534900	27.19611000
4.89999989	8.25849000	26.43332000
5.09999987	9.48818900	26.02116000
5.29999986	8.25849000	25.97195000
5.49999985	4.91941500	25.97195000
5.69999984	0.35125490	26.02116000
5.89999983	-4.39283900	26.43332000
6.09999981	-7.90661900	27.24532000
6.29999980	-9.48818900	27.65748000
6.49999979	-8.60974400	27.70669000
6.69999978	-5.62254000	27.70669000
6.89999977	-1.58095500	27.65748000
7.09999975	2.81127000	27.24532000
7.29999974	6.14972900	26.43332000
7.49999973	7.73129900	26.02116000
7.69999972	7.20410900	26.02116000
7.89999971	5.09534900	26.38410000
8.09999970	1.93282500	26.78395000
8.29999968	-1.40563500	26.38410000
8.49999967	-3.86565000	26.07037000
8.69999966	-5.09534900	26.43332000
8.89999965	-4.91941500	27.24532000
9.09999964	-3.51377900	27.60827000
9.29999962	-1.58095500	27.29453000
9.49999961	0.35125490	26.89468000
9.69999960	1.75689000	27.29453000
9.89999959	2.45940000	27.65748000
10.09999958	2.45940000	27.65748000
10.29999956	1.75689000	27.24532000
10.49999955	0.87844490	26.48253000
10.69999954	0.00000000	26.48253000
10.89999953	-0.52657480	27.19611000
11.09999952	-0.87844490	27.19611000
11.29999951	-0.87844490	26.43332000
11.49999949	-0.70250980	26.07037000
11.69999948	-0.35125490	26.43332000
11.89999947	0.00000000	27.24532000
12.09999946	0.00000000	27.60827000
12.29999945	0.00000000	27.24532000
12.49999943	0.00000000	26.43332000
12.69999942	-0.17531990	26.02116000
12.89999941	0.00000000	25.97195000
13.09999940	-0.17531990	25.97195000
13.29999939	0.00000000	25.97195000
13.49999937	0.00000000	25.97195000
13.69999936	0.00000000	25.97195000
13.89999935	0.00000000	26.02116000
14.09999934	0.00000000	26.38410000
14.29999933	0.00000000	26.78395000
14.49999932	0.00000000	26.38410000
14.69999930	0.00000000	26.02116000
14.89999929	0.00000000	25.97195000
15.09999928	0.00000000	25.97195000
15.29999927	0.00000000	25.97195000
15.49999926	0.00000000	25.97195000
15.69999924	0.00000000	25.97195000
15.89999923	0.00000000	25.97195000
16.09999922	0.00000000	25.97195000
16.29999921	0.00000000	25.97195000
16.49999920	0.00000000	25.97195000
16.69999919	0.00000000	25.97195000
16.89999917	0.00000000	25.97195000
17.09999916	0.00000000	26.02116000
17.29999915	0.00000000	26.38410000
17.49999914	0.00000000	26.78395000
17.69999913	0.00000000	26.43332000
17.89999911	0.00000000	26.33489000
18.09999910	0.00000000	25.96580000
18.29999909	0.00000000	24.80930000
18.49999908	0.00000000	25.65822000
18.69999907	0.00000000	27.09768000
18.89999905	0.00000000	27.19611000
19.09999904	0.00000000	26.43332000
19.29999903	0.00000000	26.07037000
19.49999902	0.00000000	26.38410000
19.69999901	0.00000000	26.78395000
19.89999900	0.00000000	26.43332000
20.09999898	0.00000000	26.43332000
20.29999897	0.00000000	26.78395000
20.49999896	0.00000000	26.38410000
20.69999895	0.00000000	26.07037000
20.89999894	0.00000000	26.43332000
21.09999892	0.00000000	27.24532000
21.29999891	0.00000000	27.65748000
21.49999890	0.00000000	27.65748000
21.69999889	0.00000000	27.29453000
21.89999888	0.00000000	26.89468000
22.09999886	0.00000000	27.24532000
22.29999885	0.00000000	27.19611000
22.49999884	0.00000000	26.43332000
22.69999883	0.00000000	26.07037000
22.89999882	0.00000000	26.38410000
23.09999881	0.00000000	26.78395000
23.29999879	0.00000000	26.38410000
23.49999878	0.00000000	26.02116000
23.69999877	0.00000000	25.97195000
23.89999876	0.00000000	25.97195000
24.09999875	0.00000000	26.02116000
24.29999873	0.00000000	26.43332000
24.49999872	0.00000000	27.34375000
24.69999871	0.00000000	28.57406000
24.89999870	0.00000000	30.25344000
25.09999869	0.00000000	31.02239000
25.29999867	0.00000000	30.65945000
25.49999866	0.00000000	29.33686000
25.69999865	0.00000000	27.19611000
25.89999864	0.00000000	24.19414000
26.09999863	0.00000000	20.87844000
26.29999862	0.00000000	18.33169000
26.49999860	0.00000000	17.51353000
26.69999859	0.00000000	18.38090000
26.89999858	0.00000000	21.48745000
27.09999857	0.00000000	26.94390000
27.29999856	0.00000000	33.71678000
27.49999854	0.00000000	39.58538000
27.69999853	0.00000000	43.39936000
27.89999852	0.00000000	43.71309000
28.09999851	0.00000000	39.83760000
28.29999850	0.00000000	31.73597000
28.49999848	0.00000000	20.78002000
28.69999847	0.00000000	9.77485200
28.89999846	0.00000000	1.36565000
29.09999845	0.00000000	-2.34990100
29.29999844	0.00000000	0.70127950
29.49999843	0.00000000	10.43307000
29.69999841	0.00000000	24.85236000
29.89999840	0.00000000	40.95103000
30.09999839	0.00000000	55.32726000
30.29999838	0.00000000	64.49925000
30.49999837	0.00000000	65.26205000
30.69999835	0.00000000	56.34842000
30.89999834	0.00000000	39.83760000
31.09999833	0.00000000	19.04527000
31.29999832	0.00000000	-1.69168300
31.49999831	0.00000000	-17.69193000
31.69999829	0.00000000	-24.77239000
31.89999828	0.00000000	-20.04183000
32.09999827	0.00000000	-3.98622000
32.29999826	0.00000000	19.70349000
32.49999825	0.00000000	45.49089000
32.69999824	0.00000000	67.55659000
32.89999822	0.00000000	81.01624000
33.09999821	0.00000000	82.68947000
33.29999820	0.00000000	71.22908000
33.49999819	0.00000000	49.66781000
33.69999818	0.00000000	22.50861000
33.89999816	0.00000000	-4.49680100
34.09999815	0.00000000	-24.82160000
34.29999814	0.00000000	-33.64911000
34.49999813	0.00000000	-29.05389000
34.69999812	0.00000000	-11.68799000
34.89999810	0.00000000	13.69956000
35.09999809	0.00000000	42.07677000
35.29999808	0.00000000	66.94759000
35.49999807	0.00000000	81.82824000
35.69999806	0.00000000	84.01820000
35.89999805	0.00000000	73.82504000
36.09999803	0.00000000	53.08193000
36.29999802	0.00000000	26.48253000
36.49999801	0.00000000	0.70127950
36.69999800	0.00000000	-18.35630000
36.89999799	0.00000000	-26.40871000
37.09999797	0.00000000	-21.81964000
37.29999796	0.00000000	-6.27460600
37.49999795	0.00000000	15.68651000
37.69999794	0.00000000	38.51501000
37.89999793	0.00000000	57.16658000
38.09999791	0.00000000	67.31053000
38.29999790	0.00000000	66.94759000
38.49999789	0.00000000	56.49606000
38.69999788	0.00000000	39.68380000
38.89999787	0.00000000	21.48745000
39.09999786	0.00000000	5.79478300
39.29999784	0.00000000	-3.88779500
39.49999783	0.00000000	-5.21038300
39.69999782	0.00000000	1.82086600
39.89999781	0.00000000	14.00098000
40.09999780	0.00000000	27.50984000
40.29999778	0.00000000	39.32701000
40.49999777	0.00000000	46.10605000
40.69999776	0.00000000	46.66584000
40.89999775	0.00000000	42.07677000
41.09999774	0.00000000	34.12278000
41.29999772	0.00000000	25.25836000
41.49999771	0.00000000	18.12254000
41.69999770	0.00000000	14.25320000
41.89999769	0.00000000	14.60999000
42.09999768	0.00000000	17.87647000
42.29999767	0.00000000	22.50861000
42.49999765	0.00000000	27.14690000
42.69999764	0.00000000	30.51181000
42.89999763	0.00000000	31.83440000
43.09999762	0.00000000	31.02239000
43.29999761	0.00000000	28.97392000
43.49999759	0.00000000	26.48253000
43.69999758	0.00000000	24.85236000
43.89999757	0.00000000	24.75394000
44.09999756	0.00000000	25.55979000
44.29999755	0.00000000	26.38410000
44.49999753	0.00000000	27.19611000
44.69999752	0.00000000	27.14690000
44.89999751	0.00000000	25.92274000
45.09999750	0.00000000	24.24335000
45.29999749	0.00000000	22.60704000
45.49999748	0.00000000	21.79503000
45.69999746	0.00000000	22.65625000
45.89999745	0.00000000	24.75394000
46.09999744	0.00000000	27.75590000
46.29999743	0.00000000	31.07160000
46.49999742	0.00000000	33.56914000
46.69999740	0.00000000	33.97514000
46.89999739	0.00000000	32.33883000
47.09999738	0.00000000	29.33686000
47.29999737	0.00000000	25.51058000
47.49999736	0.00000000	21.33981000
47.69999734	0.00000000	18.43012000
47.89999733	0.00000000	17.92569000
48.09999732	0.00000000	19.19291000
48.29999731	0.00000000	21.79503000
48.49999730	0.00000000	25.97195000
48.69999729	0.00000000	30.14886000
48.89999727	0.00000000	32.75098000
49.09999726	0.00000000	34.07357000
49.29999725	0.00000000	34.02436000
49.49999724	0.00000000	32.33883000
49.69999723	0.00000000	29.38607000
49.89999721	0.00000000	26.02116000
50.09999720	0.00000000	23.06841000
50.29999719	0.00000000	21.33981000
50.49999718	0.00000000	20.82923000
50.69999717	0.00000000	20.82923000
50.89999715	0.00000000	21.33981000
51.09999714	0.00000000	23.01919000
51.29999713	0.00000000	25.46137000
51.49999712	0.00000000	27.19611000
51.69999711	0.00000000	28.16806000
51.89999710	0.00000000	29.43528000
52.09999708	0.00000000	30.61023000
52.29999707	0.00000000	30.65945000
52.49999706	0.00000000	29.84744000
52.69999705	0.00000000	28.92470000
52.89999704	0.00000000	27.14690000
53.09999702	0.00000000	24.24335000
53.29999701	0.00000000	21.33981000
53.49999700	0.00000000	19.65428000
53.69999699	0.00000000	19.65428000
53.89999698	0.00000000	21.29060000
54.09999696	0.00000000	23.73277000
54.29999695	0.00000000	25.55979000
54.49999694	0.00000000	27.34990000
54.69999693	0.00000000	30.19808000
54.89999692	0.00000000	31.78518000
55.09999691	0.00000000	31.02239000
55.29999689	0.00000000	28.92470000
55.49999688	0.00000000	25.97195000
55.69999687	0.00000000	23.01919000
55.89999686	0.00000000	20.92766000
56.09999685	0.00000000	20.06643000
56.29999683	0.00000000	20.92766000
56.49999682	0.00000000	23.01919000
56.69999681	0.00000000	26.02116000
56.89999680	0.00000000	29.33686000
57.09999679	0.00000000	31.83440000
57.29999677	0.00000000	32.28962000
57.49999676	0.00000000	31.07160000
57.69999675	0.00000000	28.92470000
57.89999674	0.00000000	25.92274000
58.09999673	0.00000000	22.60704000
58.29999672	0.00000000	20.06029000
58.49999670	0.00000000	19.24212000
58.69999669	0.00000000	20.10950000
58.89999668	0.00000000	23.06841000
59.09999667	0.00000000	27.19611000
59.29999666	0.00000000	30.61023000
59.49999664	0.00000000	32.75098000
59.69999663	0.00000000	33.56299000
59.89999662	0.00000000	32.28962000
60.09999661	0.00000000	29.38607000
60.29999660	0.00000000	25.97195000
60.49999658	0.00000000	22.55782000
60.69999657	0.00000000	19.65428000
60.89999656	0.00000000	18.38090000
61.09999655	0.00000000	19.24212000
61.29999654	0.00000000	21.74582000
61.49999653	0.00000000	25.51058000
61.69999651	0.00000000	28.87549000
61.89999650	0.00000000	31.12082000
62.09999649	0.00000000	32.75098000
62.29999648	0.00000000	33.10777000
62.49999647	0.00000000	31.07160000
62.69999645	0.00000000	28.21727000
62.89999644	0.00000000	25.97195000
63.09999643	0.00000000	23.83120000
63.29999642	0.00000000	21.74582000
63.49999641	0.00000000	20.92766000
63.69999639	0.00000000	21.24139000
63.89999638	0.00000000	22.09646000
64.09999637	0.00000000	22.96998000
64.29999636	0.00000000	24.29257000
64.49999635	0.00000000	25.97195000
64.69999634	0.00000000	27.70669000
64.89999632	0.00000000	29.38607000
65.09999631	0.00000000	30.65945000
65.29999630	0.00000000	31.07160000
65.49999629	0.00000000	30.65945000
65.69999628	0.00000000	29.33686000
65.89999626	0.00000000	27.19611000
66.09999625	0.00000000	24.19414000
66.29999624	0.00000000	20.82923000
66.49999623	0.00000000	17.92569000
66.69999622	0.00000000	16.65231000
66.89999620	0.00000000	17.46432000
67.09999619	0.00000000	19.65428000
67.29999618	0.00000000	23.47441000
67.49999617	0.00000000	28.56791000
67.69999616	0.00000000	33.16314000
67.89999615	0.00000000	36.57111000
68.09999613	0.00000000	37.34006000
68.29999612	0.00000000	35.29773000
68.49999611	0.00000000	31.07160000
68.69999610	0.00000000	25.97195000
68.89999609	0.00000000	20.82923000
69.09999607	0.00000000	16.19094000
69.29999606	0.00000000	13.33661000
69.49999605	0.00000000	13.74262000
69.69999604	0.00000000	17.51353000
69.89999603	0.00000000	22.96998000
70.09999601	0.00000000	28.92470000
70.29999600	0.00000000	33.97514000
70.49999599	0.00000000	37.03248000
70.69999598	0.00000000	37.85064000
70.89999597	0.00000000	36.57111000
71.09999596	0.00000000	32.75098000
71.29999594	0.00000000	27.70669000
71.49999593	0.00000000	22.55782000
71.69999592	0.00000000	17.92569000
71.89999591	0.00000000	15.01599000
72.09999590	0.00000000	14.96678000
72.29999588	0.00000000	17.46432000
72.49999587	0.00000000	21.29060000
72.69999586	0.00000000	25.97195000
72.89999585	0.00000000	30.61023000
73.09999584	0.00000000	33.97514000
73.29999582	0.00000000	35.29773000
73.49999581	0.00000000	34.43652000
73.69999580	0.00000000	31.88361000
73.89999579	0.00000000	27.65748000
74.09999578	0.00000000	23.06841000
74.29999577	0.00000000	19.60507000
74.49999575	0.00000000	17.51353000
74.69999574	0.00000000	17.10753000
74.89999573	0.00000000	19.19291000
75.09999572	0.00000000	22.55782000
75.29999571	0.00000000	26.38410000
75.49999569	0.00000000	30.19808000
75.69999568	0.00000000	32.70177000
75.89999567	0.00000000	33.56299000
76.09999566	0.00000000	32.28962000
76.29999565	0.00000000	29.33686000
76.49999563	0.00000000	25.51058000
76.69999562	0.00000000	21.29060000
76.89999561	0.00000000	17.97490000
77.09999560	0.00000000	16.65231000
77.29999559	0.00000000	17.51353000
77.49999558	0.00000000	20.11565000
77.69999556	0.00000000	24.70472000
77.89999555	0.00000000	29.79207000
78.09999554	0.00000000	33.62450000
78.29999553	0.00000000	36.62032000
78.49999552	0.00000000	37.24163000
78.69999550	0.00000000	34.32578000
78.89999549	0.00000000	28.06963000
79.09999548	0.00000000	21.38902000
79.29999547	0.00000000	16.24016000
79.49999546	0.00000000	13.23204000
79.69999544	0.00000000	12.87525000
79.89999543	0.00000000	15.42815000
80.09999542	0.00000000	20.87844000
80.29999541	0.00000000	27.19611000
80.49999540	0.00000000	32.80019000
80.69999539	0.00000000	37.48769000
80.89999537	0.00000000	40.34203000
81.09999536	0.00000000	39.88681000
81.29999535	0.00000000	35.65453000
81.49999534	0.00000000	28.97392000
81.69999533	0.00000000	21.74582000
81.89999531	0.00000000	15.77879000
82.09999530	0.00000000	11.50344000
82.29999529	0.00000000	9.92249000
82.49999528	0.00000000	12.01402000
82.69999527	0.00000000	17.46432000
82.89999525	0.00000000	24.19414000
83.09999524	0.00000000	30.61023000
83.29999523	0.00000000	35.75910000
83.49999522	0.00000000	39.17323000
83.69999521	0.00000000	40.39739000
83.89999520	0.00000000	38.66264000
84.09999518	0.00000000	34.02436000
84.29999517	0.00000000	27.65748000
84.49999516	0.00000000	20.87844000
84.69999515	0.00000000	14.96678000
84.89999514	0.00000000	11.55266000
85.09999512	0.00000000	11.04823000
85.29999511	0.00000000	12.77682000
85.49999510	0.00000000	16.64616000
85.69999509	0.00000000	22.60704000
85.89999508	0.00000000	29.38607000
86.09999506	0.00000000	35.70374000
86.29999505	0.00000000	39.93602000
86.49999504	0.00000000	40.80339000
86.69999503	0.00000000	38.71186000
86.89999502	0.00000000	34.02436000
87.09999501	0.00000000	27.65748000
87.29999499	0.00000000	20.87844000
87.49999498	0.00000000	14.96678000
87.69999497	0.00000000	11.55266000
87.89999496	0.00000000	11.09744000
88.09999495	0.00000000	13.23819000
88.29999493	0.00000000	17.92569000
88.49999492	0.00000000	24.24335000
88.69999491	0.00000000	30.61023000
88.89999490	0.00000000	35.70989000
89.09999489	0.00000000	38.71186000
89.29999487	0.00000000	39.12401000
89.49999486	0.00000000	36.98326000
89.69999485	0.00000000	32.33883000
89.89999484	0.00000000	26.43332000
90.09999483	0.00000000	20.92766000
90.29999482	0.00000000	16.65231000
90.49999480	0.00000000	14.51156000
90.69999479	0.00000000	14.51156000
90.89999478	0.00000000	16.65231000
91.09999477	0.00000000	20.87844000
91.29999476	0.00000000	25.92274000
91.49999474	0.00000000	30.56102000
91.69999473	0.00000000	33.51993000
91.89999472	0.00000000	34.07357000
92.09999471	0.00000000	33.21235000
92.29999470	0.00000000	31.47145000
92.49999468	0.00000000	28.06963000
92.69999467	0.00000000	24.29257000
92.89999466	0.00000000	20.87844000
93.09999465	0.00000000	18.38090000
93.29999464	0.00000000	17.97490000
93.49999463	0.00000000	19.55585000
93.69999461	0.00000000	22.04724000
93.89999460	0.00000000	24.19414000
94.09999459	0.00000000	25.97195000
94.29999458	0.00000000	27.65748000
94.49999457	0.00000000	28.92470000
94.69999455	0.00000000	29.33686000
94.89999454	0.00000000	28.97392000
95.09999453	0.00000000	28.11885000
95.29999452	0.00000000	27.24532000
95.49999451	0.00000000	25.97195000
95.69999449	0.00000000	24.75394000
95.89999448	0.00000000	24.29257000
96.09999447	0.00000000	24.24335000
96.29999446	0.00000000	24.24335000
96.49999445	0.00000000	24.29257000
96.69999444	0.00000000	24.70472000
96.89999442	0.00000000	25.51058000
97.09999441	0.00000000	25.92274000
97.29999440	0.00000000	26.02116000
97.49999439	0.00000000	26.43332000
97.69999438	0.00000000	27.24532000
97.89999436	0.00000000	27.65748000
98.09999435	0.00000000	27.70669000
98.29999434	0.00000000	27.65748000
98.49999433	0.00000000	27.24532000
98.69999432	0.00000000	26.38410000
98.89999430	0.00000000	25.55979000
99.09999429	0.00000000	24.65551000
99.29999428	0.00000000	23.83120000
99.49999427	0.00000000	23.01919000
99.69999426	0.00000000	23.06841000
99.89999425	0.00000000	24.24335000
100.09999423	0.00000000	25.51058000
100.29999422	0.00000000	26.38410000
100.49999421	0.00000000	27.24532000
100.69999420	0.00000000	27.65748000
100.89999419	0.00000000	27.70669000
101.09999417	0.00000000	27.65748000
101.29999416	0.00000000	27.19611000
101.49999415	0.00000000	25.97195000
101.69999414	0.00000000	24.70472000
101.89999413	0.00000000	23.83120000
102.09999411	0.00000000	22.96998000
102.29999410	0.00000000	22.60704000
102.49999409	0.00000000	23.01919000
102.69999408	0.00000000	24.24335000
102.89999407	0.00000000	25.51058000
103.09999406	0.00000000	26.38410000
103.29999404	0.00000000	27.24532000
103.49999403	0.00000000	27.60827000
103.69999402	0.00000000	27.24532000
103.89999401	0.00000000	26.38410000
104.09999400	0.00000000	25.55979000
104.29999398	0.00000000	24.65551000
104.49999397	0.00000000	23.83120000
104.69999396	0.00000000	22.96998000
104.89999395	0.00000000	22.60704000
105.09999394	0.00000000	23.01919000
105.29999392	0.00000000	24.24335000
105.49999391	0.00000000	25.46137000
105.69999390	0.00000000	25.97195000
105.89999389	0.00000000	26.43332000
106.09999388	0.00000000	27.24532000
106.29999387	0.00000000	27.60827000
106.49999385	0.00000000	27.19611000
106.69999384	0.00000000	25.97195000
106.89999383	0.00000000	24.75394000
107.09999382	0.00000000	24.24335000
107.29999381	0.00000000	23.78199000
107.49999379	0.00000000	23.01919000
107.69999378	0.00000000	23.06841000
107.89999377	0.00000000	24.19414000
108.09999376	0.00000000	25.10458000
108.29999375	0.00000000	25.62131000
108.49999374	0.00000000	27.29453000
108.69999372	0.00000000	28.82628000
108.89999371	0.00000000	28.87549000
109.09999370	0.00000000	27.65748000
