Time	Channel A	Channel B
(us)	(V)	(mV)

-4.59999956	0.00000000	-6.92667200
-4.39999957	0.00000000	-6.92667200
-4.19999958	0.00000000	-6.92667200
-3.99999959	0.00000000	-6.92667200
-3.79999960	0.00000000	-6.92667200
-3.59999962	0.00000000	-6.92667200
-3.39999963	0.00000000	-6.92667200
-3.19999964	0.00000000	-6.92667200
-2.99999965	0.00000000	-6.92667200
-2.79999966	0.00000000	-6.92667200
-2.59999968	0.00000000	-6.92667200
-2.39999969	0.00000000	-6.92667200
-2.19999970	0.00000000	-6.92667200
-1.99999971	0.00000000	-6.92667200
-1.79999972	0.00000000	-6.92667200
-1.59999973	0.00000000	-6.92667200
-1.39999975	0.00000000	-6.92667200
-1.19999976	0.00000000	-6.92667200
-0.99999977	0.00000000	-6.92667200
-0.79999978	0.00000000	-6.92667200
-0.59999979	0.00000000	-6.92667200
-0.39999981	0.17531990	-6.92667200
-0.19999982	0.52657480	-6.92667200
0.00000017	0.87844490	-6.92667200
0.20000016	1.05376500	-6.92667200
0.40000015	1.05376500	-6.92667200
0.60000013	0.70250980	-6.92667200
0.80000012	0.00000000	-6.92667200
1.00000011	-1.05376500	-6.92667200
1.20000010	-1.93282500	-6.92667200
1.40000009	-2.63533500	-6.92667200
1.60000008	-2.81127000	-6.92667200
1.80000006	-1.93282500	-6.92667200
2.00000005	-0.52657480	-6.92667200
2.20000004	1.58095500	-6.92667200
2.40000003	3.51377900	-6.92667200
2.60000002	5.09534900	-6.97588500
2.80000000	5.27128500	-7.38804100
2.99999999	4.04096900	-8.14468500
3.19999998	1.58095500	-8.14468500
3.39999997	-1.75689000	-7.38804100
3.59999996	-5.09534900	-6.97588500
3.79999994	-7.37942900	-6.92667200
3.99999993	-8.08255400	-6.87746000
4.19999992	-6.50098400	-6.51451700
4.39999991	-3.16252500	-6.11466500
4.59999990	1.05376500	-6.51451700
4.79999989	5.27128500	-6.87746000
4.99999987	8.43380900	-6.97588500
5.19999986	9.48818900	-7.38804100
5.39999985	8.08255400	-8.19389700
5.59999984	4.74409400	-8.55684000
5.79999983	0.00000000	-8.19389700
5.99999981	-4.74409400	-7.38804100
6.19999980	-8.08255400	-6.92667200
6.39999979	-9.48818900	-6.51451700
6.59999978	-8.43380900	-6.11466500
6.79999977	-5.44660400	-6.51451700
6.99999975	-1.05376500	-6.87746000
7.19999974	3.16252500	-6.92667200
7.39999973	6.32566500	-6.97588500
7.59999972	7.73129900	-7.38804100
7.79999971	7.02817400	-8.14468500
7.99999970	4.74409400	-8.14468500
8.19999968	1.58095500	-7.38804100
8.39999967	-1.58095500	-6.97588500
8.59999966	-4.04096900	-6.92667200
8.79999965	-5.09534900	-6.92667200
8.99999964	-4.74409400	-6.92667200
9.19999962	-3.51377900	-6.92667200
9.39999961	-1.40563500	-6.92667200
9.59999960	0.35125490	-6.92667200
9.79999959	1.93282500	-6.92667200
9.99999958	2.45940000	-6.92667200
10.19999956	2.28408000	-6.92667200
10.39999955	1.58095500	-6.92667200
10.59999954	0.70250980	-6.92667200
10.79999953	0.00000000	-6.92667200
10.99999952	-0.70250980	-6.92667200
11.19999951	-0.87844490	-6.92667200
11.39999949	-0.87844490	-6.92667200
11.59999948	-0.70250980	-6.92667200
11.79999947	-0.35125490	-6.92667200
11.99999946	0.00000000	-6.92667200
12.19999945	0.00000000	-6.92667200
12.39999943	0.00000000	-6.92667200
12.59999942	0.00000000	-6.92667200
12.79999941	-0.17531990	-6.92667200
12.99999940	-0.17531990	-6.92667200
13.19999939	-0.17531990	-6.92667200
13.39999937	0.00000000	-6.92667200
13.59999936	-0.17531990	-6.92667200
13.79999935	0.00000000	-6.92667200
13.99999934	0.00000000	-6.92667200
14.19999933	0.00000000	-6.92667200
14.39999932	0.00000000	-6.87746000
14.59999930	0.00000000	-6.51451700
14.79999929	0.00000000	-6.11466500
14.99999928	0.00000000	-6.46530500
15.19999927	0.00000000	-6.46530500
15.39999926	0.00000000	-6.11466500
15.59999924	0.00000000	-6.51451700
15.79999923	0.00000000	-6.92667200
15.99999922	0.00000000	-7.33882900
16.19999921	0.00000000	-7.73868000
16.39999920	0.00000000	-7.33882900
16.59999919	0.00000000	-6.97588500
16.79999917	0.00000000	-6.92667200
16.99999916	0.00000000	-6.92667200
17.19999915	0.00000000	-6.92667200
17.39999914	0.00000000	-6.92667200
17.59999913	0.00000000	-6.92667200
17.79999911	0.00000000	-6.92667200
17.99999910	0.00000000	-6.92667200
18.19999909	0.00000000	-6.92667200
18.39999908	0.00000000	-6.92667200
18.59999907	0.00000000	-6.92667200
18.79999905	0.00000000	-6.92667200
18.99999904	0.00000000	-6.92667200
19.19999903	0.00000000	-6.92667200
19.39999902	0.00000000	-6.92667200
19.59999901	0.00000000	-6.92667200
19.79999900	0.00000000	-6.92667200
19.99999898	0.00000000	-6.92667200
20.19999897	0.00000000	-6.92667200
20.39999896	0.00000000	-6.92667200
20.59999895	0.00000000	-6.92667200
20.79999894	0.00000000	-6.92667200
20.99999892	0.00000000	-6.92667200
21.19999891	0.00000000	-6.92667200
21.39999890	0.00000000	-6.92667200
21.59999889	0.00000000	-6.92667200
21.79999888	0.00000000	-6.92667200
21.99999886	0.00000000	-6.92667200
22.19999885	0.00000000	-6.92667200
22.39999884	0.00000000	-6.92667200
22.59999883	0.00000000	-6.92667200
22.79999882	0.00000000	-6.92667200
22.99999881	0.00000000	-6.92667200
23.19999879	0.00000000	-6.97588500
23.39999878	0.00000000	-7.38804100
23.59999877	0.00000000	-8.19389700
23.79999876	0.00000000	-8.60605200
23.99999875	0.00000000	-8.60605200
24.19999873	0.00000000	-8.14468500
24.39999872	0.00000000	-6.92667200
24.59999871	0.00000000	-5.65329700
24.79999870	0.00000000	-4.73056000
24.99999869	0.00000000	-3.46333600
25.19999867	0.00000000	-2.28838600
25.39999866	0.00000000	-2.33759800
25.59999865	0.00000000	-4.02313000
25.79999864	0.00000000	-6.97588500
25.99999863	0.00000000	-10.34080000
26.19999862	0.00000000	-13.34276000
26.39999860	0.00000000	-15.43430000
26.59999859	0.00000000	-16.24631000
26.79999858	0.00000000	-14.87451000
26.99999857	0.00000000	-11.05438000
27.19999856	0.00000000	-5.14271600
27.39999854	0.00000000	1.22416300
27.59999853	0.00000000	6.72982200
27.79999852	0.00000000	10.44537000
27.99999851	0.00000000	10.34695000
28.19999850	0.00000000	5.71481200
28.39999848	0.00000000	-2.38681100
28.59999847	0.00000000	-12.62918000
28.79999846	0.00000000	-23.58514000
28.99999845	0.00000000	-32.35113000
29.19999844	0.00000000	-35.66683000
29.39999843	0.00000000	-32.25270000
29.59999841	0.00000000	-22.42249000
29.79999840	0.00000000	-7.59104300
29.99999839	0.00000000	9.27657400
30.19999838	0.00000000	23.59129000
30.39999837	0.00000000	31.64370000
30.59999835	0.00000000	31.54527000
30.79999834	0.00000000	22.57628000
30.99999833	0.00000000	5.61638700
31.19999832	0.00000000	-15.53273000
31.39999831	0.00000000	-36.22662000
31.59999829	0.00000000	-51.40871000
31.79999828	0.00000000	-56.86515000
31.99999827	0.00000000	-51.35949000
32.19999826	0.00000000	-35.61762000
32.39999825	0.00000000	-12.73991000
32.59999824	0.00000000	12.64149000
32.79999822	0.00000000	34.60261000
32.99999821	0.00000000	47.69931000
33.19999820	0.00000000	48.92347000
33.39999819	0.00000000	37.45694000
33.59999818	0.00000000	15.44660000
33.79999816	0.00000000	-12.02018000
33.99999815	0.00000000	-38.66880000
34.19999814	0.00000000	-58.13853000
34.39999813	0.00000000	-66.19094000
34.59999812	0.00000000	-61.09129000
34.79999810	0.00000000	-43.71924000
34.99999809	0.00000000	-17.93184000
35.19999808	0.00000000	10.39616000
35.39999807	0.00000000	34.50418000
35.59999806	0.00000000	48.92347000
35.79999805	0.00000000	50.60285000
35.99999803	0.00000000	39.18553000
36.19999802	0.00000000	17.27362000
36.39999801	0.00000000	-9.32578700
36.59999800	0.00000000	-33.83366000
36.79999799	0.00000000	-50.94734000
36.99999797	0.00000000	-57.68946000
37.19999796	0.00000000	-53.44488000
37.39999795	0.00000000	-37.75836000
37.59999794	0.00000000	-15.12672000
37.79999793	0.00000000	8.15698700
37.99999791	0.00000000	26.35334000
38.19999790	0.00000000	35.72219000
38.39999789	0.00000000	34.50418000
38.59999788	0.00000000	23.59129000
38.79999787	0.00000000	6.31766700
38.99999786	0.00000000	-12.64149000
39.19999784	0.00000000	-28.27879000
39.39999783	0.00000000	-36.84178000
39.59999782	0.00000000	-37.35236000
39.79999781	0.00000000	-30.61639000
39.99999780	0.00000000	-18.43627000
40.19999778	0.00000000	-4.57677100
40.39999777	0.00000000	6.83439900
40.59999776	0.00000000	13.20128000
40.79999775	0.00000000	13.29970000
40.99999774	0.00000000	7.94783400
41.19999772	0.00000000	-0.04921259
41.39999771	0.00000000	-8.45841400
41.59999770	0.00000000	-15.23130000
41.79999769	0.00000000	-18.19021000
41.99999768	0.00000000	-17.47047000
42.19999767	0.00000000	-13.70571000
42.39999765	0.00000000	-8.75369100
42.59999764	0.00000000	-4.47834600
42.79999763	0.00000000	-1.92544300
42.99999762	0.00000000	-1.06422200
43.19999761	0.00000000	-2.33759800
43.39999759	0.00000000	-5.19192900
43.59999758	0.00000000	-8.04626000
43.79999757	0.00000000	-9.31963500
43.99999756	0.00000000	-8.55684000
44.19999755	0.00000000	-6.92667200
44.39999753	0.00000000	-5.24114100
44.59999752	0.00000000	-4.02313000
44.79999751	0.00000000	-4.07234200
44.99999750	0.00000000	-5.70251000
45.19999749	0.00000000	-8.24311000
45.39999748	0.00000000	-10.75295000
45.59999746	0.00000000	-12.83834000
45.79999745	0.00000000	-13.14591000
45.99999744	0.00000000	-11.10359000
46.19999743	0.00000000	-7.28961600
46.39999742	0.00000000	-3.10039400
46.59999740	0.00000000	0.66437010
46.79999739	0.00000000	2.34375000
46.99999738	0.00000000	1.53174200
47.19999737	0.00000000	-1.01501000
47.39999736	0.00000000	-5.29035400
47.59999734	0.00000000	-10.29158000
47.79999733	0.00000000	-14.51772000
47.99999732	0.00000000	-16.65846000
48.19999731	0.00000000	-16.65846000
48.39999730	0.00000000	-14.51772000
48.59999729	0.00000000	-10.29158000
48.79999727	0.00000000	-5.29035400
48.99999726	0.00000000	-1.01501000
49.19999725	0.00000000	1.53174200
49.39999724	0.00000000	2.44217500
49.59999723	0.00000000	1.53174200
49.79999721	0.00000000	-0.96579720
49.99999720	0.00000000	-4.77977300
50.19999719	0.00000000	-8.55684000
50.39999718	0.00000000	-11.60802000
50.59999717	0.00000000	-13.70571000
50.79999715	0.00000000	-14.56693000
50.99999714	0.00000000	-13.70571000
51.19999713	0.00000000	-11.60802000
51.39999712	0.00000000	-8.60605200
51.59999711	0.00000000	-5.24114100
51.79999710	0.00000000	-2.28838600
51.99999708	0.00000000	-0.55979330
52.19999707	0.00000000	-0.09842519
52.39999706	0.00000000	-0.55979330
52.59999705	0.00000000	-2.23917300
52.79999704	0.00000000	-4.73056000
52.99999702	0.00000000	-6.92667200
53.19999701	0.00000000	-9.11663300
53.39999700	0.00000000	-11.55881000
53.59999699	0.00000000	-12.78297000
53.79999698	0.00000000	-11.97096000
53.99999696	0.00000000	-9.92864100
54.19999695	0.00000000	-7.33882900
54.39999694	0.00000000	-4.77977300
54.59999693	0.00000000	-2.23917300
54.79999692	0.00000000	-0.60900590
54.99999691	0.00000000	-0.60900590
55.19999689	0.00000000	-2.28838600
55.39999688	0.00000000	-5.19192900
55.59999687	0.00000000	-8.14468500
55.79999686	0.00000000	-10.29158000
55.99999685	0.00000000	-11.55881000
56.19999683	0.00000000	-11.55881000
56.39999682	0.00000000	-10.29158000
56.59999681	0.00000000	-8.14468500
56.79999680	0.00000000	-5.19192900
56.99999679	0.00000000	-2.28838600
57.19999677	0.00000000	-0.60900590
57.39999676	0.00000000	-0.60900590
57.59999675	0.00000000	-2.28838600
57.79999674	0.00000000	-5.24114100
57.99999673	0.00000000	-8.60605200
58.19999672	0.00000000	-11.55881000
58.39999670	0.00000000	-13.24434000
58.59999669	0.00000000	-13.24434000
58.79999668	0.00000000	-11.55881000
58.99999667	0.00000000	-8.60605200
59.19999666	0.00000000	-5.19192900
59.39999664	0.00000000	-1.82701800
59.59999663	0.00000000	0.66437010
59.79999662	0.00000000	1.11958700
59.99999661	0.00000000	-0.14763780
60.19999660	0.00000000	-2.74975400
60.39999658	0.00000000	-6.92667200
60.59999657	0.00000000	-11.10359000
60.79999656	0.00000000	-13.70571000
60.99999655	0.00000000	-14.97293000
61.19999654	0.00000000	-14.51772000
61.39999653	0.00000000	-11.97096000
61.59999651	0.00000000	-8.19389700
61.79999650	0.00000000	-3.97391700
61.99999649	0.00000000	-0.60900590
62.19999648	0.00000000	1.11958700
62.39999647	0.00000000	1.11958700
62.59999645	0.00000000	-0.55979330
62.79999644	0.00000000	-3.51254900
62.99999643	0.00000000	-6.87746000
63.19999642	0.00000000	-9.83021600
63.39999641	0.00000000	-11.55881000
63.59999639	0.00000000	-12.02018000
63.79999638	0.00000000	-11.60802000
63.99999637	0.00000000	-10.39001000
64.19999636	0.00000000	-9.06742000
64.39999635	0.00000000	-7.73868000
64.59999634	0.00000000	-5.60408400
64.79999632	0.00000000	-3.56176100
64.99999631	0.00000000	-2.18996000
65.19999630	0.00000000	-1.31643700
65.39999629	0.00000000	-0.51058070
65.59999628	0.00000000	-0.55979330
65.79999626	0.00000000	-1.82701800
65.99999625	0.00000000	-4.02313000
66.19999624	0.00000000	-7.38804100
66.39999623	0.00000000	-11.15280000
66.59999622	0.00000000	-13.70571000
66.79999620	0.00000000	-15.02214000
66.99999619	0.00000000	-14.97293000
67.19999618	0.00000000	-13.24434000
67.39999617	0.00000000	-9.83021600
67.59999616	0.00000000	-5.19192900
67.79999615	0.00000000	-0.55979330
67.99999613	0.00000000	2.85433100
68.19999612	0.00000000	4.53371000
68.39999611	0.00000000	4.07849400
68.59999610	0.00000000	1.07037400
68.79999609	0.00000000	-3.97391700
68.99999607	0.00000000	-9.97785300
69.19999606	0.00000000	-15.79724000
69.39999605	0.00000000	-19.96186000
69.59999604	0.00000000	-20.02337000
69.79999603	0.00000000	-17.16904000
69.99999601	0.00000000	-12.88755000
70.19999600	0.00000000	-7.33882900
70.39999599	0.00000000	-1.82701800
70.59999598	0.00000000	2.85433100
70.79999597	0.00000000	5.76402500
70.99999596	0.00000000	5.81323800
71.19999594	0.00000000	3.26648600
71.39999593	0.00000000	-0.96579720
71.59999592	0.00000000	-6.51451700
71.79999591	0.00000000	-11.97096000
71.99999590	0.00000000	-16.24631000
72.19999588	0.00000000	-18.33784000
72.39999587	0.00000000	-17.93184000
72.59999586	0.00000000	-14.97293000
72.79999585	0.00000000	-10.34080000
72.99999584	0.00000000	-5.19192900
73.19999582	0.00000000	-0.09842519
73.39999581	0.00000000	4.07849400
73.59999580	0.00000000	5.70866100
73.79999579	0.00000000	4.07849400
73.99999578	0.00000000	-0.09842519
74.19999577	0.00000000	-5.19192900
74.39999575	0.00000000	-10.34080000
74.59999574	0.00000000	-14.92372000
74.79999573	0.00000000	-17.47047000
74.99999572	0.00000000	-17.07062000
75.19999571	0.00000000	-14.56693000
75.39999569	0.00000000	-10.29158000
75.59999568	0.00000000	-5.24114100
75.79999567	0.00000000	-0.55979330
75.99999566	0.00000000	2.80511800
76.19999565	0.00000000	4.02928100
76.39999563	0.00000000	2.34990100
76.59999562	0.00000000	-1.82701800
76.79999561	0.00000000	-6.92667200
76.99999560	0.00000000	-12.02018000
77.19999559	0.00000000	-16.19710000
77.39999558	0.00000000	-17.83341000
77.59999556	0.00000000	-16.19710000
77.79999555	0.00000000	-11.97096000
77.99999554	0.00000000	-6.46530500
78.19999553	0.00000000	-0.55979330
78.39999552	0.00000000	4.07849400
78.59999550	0.00000000	6.17002900
78.79999549	0.00000000	5.30265700
78.99999548	0.00000000	1.07652500
79.19999547	0.00000000	-5.24114100
79.39999546	0.00000000	-12.02018000
79.59999544	0.00000000	-17.88263000
79.79999543	0.00000000	-20.83538000
79.99999542	0.00000000	-20.02337000
80.19999541	0.00000000	-16.20325000
80.39999540	0.00000000	-9.83021600
80.59999539	0.00000000	-2.23917300
80.79999537	0.00000000	4.49065000
80.99999536	0.00000000	8.76599300
81.19999535	0.00000000	9.53494100
81.39999534	0.00000000	6.61909400
81.59999533	0.00000000	0.26451770
81.79999531	0.00000000	-7.33882900
81.99999530	0.00000000	-14.97293000
82.19999529	0.00000000	-20.83538000
82.39999528	0.00000000	-22.97613000
82.59999527	0.00000000	-21.34596000
82.79999525	0.00000000	-16.65846000
82.99999524	0.00000000	-9.83021600
83.19999523	0.00000000	-1.82701800
83.39999522	0.00000000	5.35187000
83.59999521	0.00000000	9.58415200
83.79999520	0.00000000	10.49459000
83.99999518	0.00000000	7.89862200
84.19999517	0.00000000	2.44832700
84.39999516	0.00000000	-4.77977300
84.59999515	0.00000000	-11.97096000
84.79999514	0.00000000	-17.93184000
84.99999512	0.00000000	-21.34596000
85.19999511	0.00000000	-21.75197000
85.39999510	0.00000000	-19.20522000
85.59999509	0.00000000	-13.70571000
85.79999508	0.00000000	-6.92667200
85.99999506	0.00000000	-0.14763780
86.19999505	0.00000000	5.35187000
86.39999504	0.00000000	7.94783400
86.59999503	0.00000000	7.94783400
86.79999502	0.00000000	5.40108300
86.99999501	0.00000000	0.31373030
87.19999499	0.00000000	-5.65329700
87.39999498	0.00000000	-12.02018000
87.59999497	0.00000000	-17.47047000
87.79999496	0.00000000	-20.07259000
87.99999495	0.00000000	-20.07259000
88.19999493	0.00000000	-17.51968000
88.39999492	0.00000000	-12.43233000
88.59999491	0.00000000	-6.51451700
88.79999490	0.00000000	-0.55979330
88.99999489	0.00000000	4.07849400
89.19999487	0.00000000	6.21924200
89.39999486	0.00000000	5.81323800
89.59999485	0.00000000	2.85433100
89.79999484	0.00000000	-1.77780500
89.99999483	0.00000000	-6.92667200
90.19999482	0.00000000	-12.02018000
90.39999480	0.00000000	-16.19710000
90.59999479	0.00000000	-17.88263000
90.79999478	0.00000000	-16.70768000
90.99999477	0.00000000	-13.75492000
91.19999476	0.00000000	-9.87942800
91.39999474	0.00000000	-5.24114100
91.59999473	0.00000000	-1.01501000
91.79999472	0.00000000	1.53174200
91.99999471	0.00000000	2.39296200
92.19999470	0.00000000	1.12573800
92.39999468	0.00000000	-1.77780500
92.59999467	0.00000000	-5.14271600
92.79999466	0.00000000	-8.14468500
92.99999465	0.00000000	-10.29158000
93.19999464	0.00000000	-11.60802000
93.39999463	0.00000000	-11.97096000
93.59999461	0.00000000	-11.15280000
93.79999460	0.00000000	-9.06742000
93.99999459	0.00000000	-6.97588500
94.19999458	0.00000000	-5.24114100
94.39999457	0.00000000	-3.97391700
94.59999455	0.00000000	-3.51254900
94.79999454	0.00000000	-3.46333600
94.99999453	0.00000000	-3.51254900
95.19999452	0.00000000	-3.97391700
95.39999451	0.00000000	-5.19192900
95.59999449	0.00000000	-6.46530500
95.79999448	0.00000000	-7.33882900
95.99999447	0.00000000	-8.19389700
96.19999446	0.00000000	-8.60605200
96.39999445	0.00000000	-8.60605200
96.59999444	0.00000000	-8.19389700
96.79999442	0.00000000	-7.38804100
96.99999441	0.00000000	-6.92667200
97.19999440	0.00000000	-6.46530500
97.39999439	0.00000000	-5.65329700
97.59999438	0.00000000	-5.24114100
97.79999436	0.00000000	-5.19192900
97.99999435	0.00000000	-5.19192900
98.19999434	0.00000000	-5.19192900
98.39999433	0.00000000	-5.24114100
98.59999432	0.00000000	-5.65329700
98.79999430	0.00000000	-6.46530500
98.99999429	0.00000000	-6.87746000
99.19999428	0.00000000	-6.97588500
99.39999427	0.00000000	-7.33882900
99.59999426	0.00000000	-7.73868000
99.79999425	0.00000000	-7.33882900
99.99999423	0.00000000	-6.97588500
100.19999422	0.00000000	-6.87746000
100.39999421	0.00000000	-6.46530500
100.59999420	0.00000000	-5.65329700
100.79999419	0.00000000	-5.24114100
100.99999417	0.00000000	-5.19192900
101.19999416	0.00000000	-5.19192900
101.39999415	0.00000000	-5.19192900
101.59999414	0.00000000	-5.19192900
101.79999413	0.00000000	-5.24114100
101.99999411	0.00000000	-5.70251000
102.19999410	0.00000000	-6.92667200
102.39999409	0.00000000	-8.14468500
102.59999408	0.00000000	-8.55684000
102.79999407	0.00000000	-8.19389700
102.99999406	0.00000000	-7.33882900
103.19999404	0.00000000	-6.51451700
103.39999403	0.00000000	-5.60408400
103.59999402	0.00000000	-4.77977300
103.79999401	0.00000000	-3.92470400
103.99999400	0.00000000	-3.56176100
104.19999398	0.00000000	-3.97391700
104.39999397	0.00000000	-5.19192900
104.59999396	0.00000000	-6.46530500
104.79999395	0.00000000	-7.33882900
104.99999394	0.00000000	-8.19389700
105.19999392	0.00000000	-8.60605200
105.39999391	0.00000000	-8.60605200
105.59999390	0.00000000	-8.14468500
105.79999389	0.00000000	-6.87746000
105.99999388	0.00000000	-5.24114100
106.19999387	0.00000000	-3.97391700
106.39999385	0.00000000	-3.51254900
106.59999384	0.00000000	-3.51254900
106.79999383	0.00000000	-3.97391700
106.99999382	0.00000000	-5.24114100
107.19999381	0.00000000	-6.92667200
107.39999379	0.00000000	-8.60605200
107.59999378	0.00000000	-9.83021600
107.79999377	0.00000000	-9.87942800
107.99999376	0.00000000	-9.01820900
108.19999375	0.00000000	-7.73868000
108.39999374	0.00000000	-5.60408400
108.59999372	0.00000000	-3.56176100
