Time	Channel A	Channel B
(us)	(V)	(mV)

-4.49999956	0.00000000	13.85334000
-4.29999957	0.00000000	13.85334000
-4.09999958	0.00000000	13.85334000
-3.89999959	0.00000000	13.85334000
-3.69999960	0.00000000	13.85334000
-3.49999962	0.00000000	13.85334000
-3.29999963	0.00000000	13.85334000
-3.09999964	0.00000000	13.85334000
-2.89999965	0.00000000	13.85334000
-2.69999966	0.00000000	13.85334000
-2.49999968	0.00000000	13.85334000
-2.29999969	0.00000000	13.85334000
-2.09999970	0.00000000	13.85334000
-1.89999971	0.00000000	13.85334000
-1.69999972	0.00000000	13.85334000
-1.49999973	0.00000000	13.85334000
-1.29999975	0.00000000	13.85334000
-1.09999976	0.00000000	13.85334000
-0.89999977	0.00000000	13.85334000
-0.69999978	0.00000000	13.85334000
-0.49999979	0.00000000	13.85334000
-0.29999981	0.35125490	13.85334000
-0.09999982	0.70250980	13.85334000
0.10000017	1.05376500	13.85334000
0.30000016	1.05376500	13.80413000
0.50000015	0.70250980	13.39198000
0.70000013	0.17531990	12.53076000
0.90000012	-0.70250980	11.80487000
1.10000011	-1.75689000	11.76796000
1.30000010	-2.45940000	12.98597000
1.50000009	-2.81127000	13.75492000
1.70000008	-2.28408000	13.85334000
1.90000006	-0.87844490	13.85334000
2.10000005	1.05376500	13.85334000
2.30000004	3.16252500	13.85334000
2.50000003	4.74409400	13.85334000
2.70000002	5.44660400	13.80413000
2.90000000	4.56816000	13.44119000
3.09999999	2.28408000	13.04134000
3.29999998	-0.87844490	13.44119000
3.49999997	-4.21690500	13.85334000
3.69999996	-6.85223900	14.31471000
3.89999994	-8.08255400	15.12057000
4.09999993	-7.02817400	15.58194000
4.29999992	-4.21690500	15.99409000
4.49999991	-0.17531990	16.39395000
4.69999990	4.39283900	15.99409000
4.89999989	7.90661900	15.58194000
5.09999987	9.48818900	15.12057000
5.29999986	8.60974400	14.31471000
5.49999985	5.79847400	13.90256000
5.69999984	1.22970000	13.85334000
5.89999983	-3.51377900	13.90256000
6.09999981	-7.37942900	14.31471000
6.29999980	-9.31225400	15.12057000
6.49999979	-8.96099900	15.53273000
6.69999978	-6.32566500	15.58194000
6.89999977	-2.28408000	15.58194000
7.09999975	2.10814500	15.58194000
7.29999974	5.62254000	15.53273000
7.49999973	7.55536400	15.12057000
7.69999972	7.37942900	14.31471000
7.89999971	5.44660400	13.90256000
8.09999970	2.45940000	13.80413000
8.29999968	-0.70250980	13.44119000
8.49999967	-3.51377900	13.04134000
8.69999966	-4.91941500	13.44119000
8.89999965	-5.09534900	13.80413000
9.09999964	-3.86565000	13.85334000
9.29999962	-1.93282500	13.85334000
9.49999961	0.00000000	13.85334000
9.69999960	1.58095500	13.85334000
9.89999959	2.28408000	13.85334000
10.09999958	2.45940000	13.85334000
10.29999956	1.93282500	13.85334000
10.49999955	1.05376500	13.85334000
10.69999954	0.17531990	13.85334000
10.89999953	-0.52657480	13.85334000
11.09999952	-0.87844490	13.85334000
11.29999951	-0.87844490	13.85334000
11.49999949	-0.70250980	13.85334000
11.69999948	-0.52657480	13.85334000
11.89999947	-0.17531990	13.85334000
12.09999946	0.00000000	13.85334000
12.29999945	0.00000000	13.85334000
12.49999943	0.00000000	13.85334000
12.69999942	0.00000000	13.85334000
12.89999941	-0.17531990	13.85334000
13.09999940	-0.17531990	13.85334000
13.29999939	-0.17531990	13.85334000
13.49999937	0.00000000	13.85334000
13.69999936	0.00000000	13.85334000
13.89999935	0.00000000	13.85334000
14.09999934	0.00000000	13.85334000
14.29999933	0.00000000	13.85334000
14.49999932	0.00000000	13.85334000
14.69999930	0.00000000	13.85334000
14.89999929	0.00000000	13.85334000
15.09999928	0.00000000	13.85334000
15.29999927	0.00000000	13.85334000
15.49999926	0.00000000	13.85334000
15.69999924	0.00000000	13.85334000
15.89999923	0.00000000	13.90256000
16.09999922	0.00000000	14.26550000
16.29999921	0.00000000	14.71457000
16.49999920	0.00000000	14.67150000
16.69999919	0.00000000	14.76378000
16.89999917	0.00000000	14.72072000
17.09999916	0.00000000	15.12057000
17.29999915	0.00000000	15.07136000
17.49999914	0.00000000	14.36393000
17.69999913	0.00000000	14.36393000
17.89999911	0.00000000	15.12057000
18.09999910	0.00000000	15.53273000
18.29999909	0.00000000	15.58194000
18.49999908	0.00000000	15.58194000
18.69999907	0.00000000	15.58194000
18.89999905	0.00000000	15.58194000
19.09999904	0.00000000	15.58194000
19.29999903	0.00000000	15.53273000
19.49999902	0.00000000	15.16978000
19.69999901	0.00000000	14.76993000
19.89999900	0.00000000	15.16978000
20.09999898	0.00000000	15.53273000
20.29999897	0.00000000	15.58194000
20.49999896	0.00000000	15.58194000
20.69999895	0.00000000	15.53273000
20.89999894	0.00000000	15.16978000
21.09999892	0.00000000	14.76993000
21.29999891	0.00000000	15.16978000
21.49999890	0.00000000	15.53273000
21.69999889	0.00000000	15.58194000
21.89999888	0.00000000	15.58194000
22.09999886	0.00000000	15.58194000
22.29999885	0.00000000	15.58194000
22.49999884	0.00000000	15.58194000
22.69999883	0.00000000	15.58194000
22.89999882	0.00000000	15.53273000
23.09999881	0.00000000	15.12057000
23.29999879	0.00000000	14.31471000
23.49999878	0.00000000	13.90256000
23.69999877	0.00000000	13.85334000
23.89999876	0.00000000	13.85334000
24.09999875	0.00000000	13.90256000
24.29999873	0.00000000	14.36393000
24.49999872	0.00000000	15.58194000
24.69999871	0.00000000	16.85531000
24.89999870	0.00000000	17.72884000
25.09999869	0.00000000	18.53469000
25.29999867	0.00000000	18.48548000
25.49999866	0.00000000	17.21826000
25.69999865	0.00000000	15.07136000
25.89999864	0.00000000	12.06939000
26.09999863	0.00000000	8.75369100
26.29999862	0.00000000	6.20693900
26.49999860	0.00000000	5.38877900
26.69999859	0.00000000	6.25615100
26.89999858	0.00000000	9.31348400
27.09999857	0.00000000	14.41314000
27.29999856	0.00000000	20.78002000
27.49999854	0.00000000	27.04847000
27.69999853	0.00000000	31.22539000
27.89999852	0.00000000	31.63755000
28.09999851	0.00000000	28.17421000
28.29999850	0.00000000	20.88459000
28.49999848	0.00000000	10.34080000
28.69999847	0.00000000	-0.61515740
28.89999846	0.00000000	-9.07357200
29.09999845	0.00000000	-13.20128000
29.29999844	0.00000000	-11.01132000
29.49999843	0.00000000	-2.09768700
29.69999841	0.00000000	11.50344000
29.89999840	0.00000000	27.60827000
30.09999839	0.00000000	42.74114000
30.29999838	0.00000000	52.42372000
30.49999837	0.00000000	54.06004000
30.69999835	0.00000000	46.77042000
30.89999834	0.00000000	31.07775000
31.09999833	0.00000000	10.34080000
31.29999832	0.00000000	-10.80832000
31.49999831	0.00000000	-27.62672000
31.69999829	0.00000000	-35.21776000
31.89999828	0.00000000	-31.39763000
32.09999827	0.00000000	-17.38435000
32.29999826	0.00000000	4.67519700
32.49999825	0.00000000	30.05659000
32.69999824	0.00000000	52.88509000
32.89999822	0.00000000	68.06718000
33.09999821	0.00000000	71.38902000
33.29999820	0.00000000	61.65108000
33.49999819	0.00000000	40.91412000
33.69999818	0.00000000	13.85334000
33.89999816	0.00000000	-13.20128000
34.09999815	0.00000000	-33.94439000
34.29999814	0.00000000	-43.67618000
34.49999813	0.00000000	-40.31127000
34.69999812	0.00000000	-24.61860000
34.89999810	0.00000000	-0.05536417
35.09999809	0.00000000	28.27264000
35.29999808	0.00000000	53.59867000
35.49999807	0.00000000	69.70349000
35.69999806	0.00000000	73.11761000
35.89999805	0.00000000	63.43504000
36.09999803	0.00000000	43.15329000
36.29999802	0.00000000	17.36589000
36.49999801	0.00000000	-8.00935000
36.69999800	0.00000000	-27.06693000
36.89999799	0.00000000	-35.57455000
37.09999797	0.00000000	-32.20964000
37.29999796	0.00000000	-17.88878000
37.49999795	0.00000000	3.61097400
37.69999794	0.00000000	26.39640000
37.89999793	0.00000000	45.04183000
38.09999791	0.00000000	55.23499000
38.29999790	0.00000000	55.33341000
38.49999789	0.00000000	46.10605000
38.69999788	0.00000000	30.51181000
38.89999787	0.00000000	12.77682000
39.09999786	0.00000000	-2.90969500
39.29999784	0.00000000	-13.05364000
39.49999783	0.00000000	-15.60039000
39.69999782	0.00000000	-9.78715500
39.89999781	0.00000000	1.87623000
40.09999780	0.00000000	14.97293000
40.29999778	0.00000000	26.43947000
40.49999777	0.00000000	33.98130000
40.69999776	0.00000000	35.35310000
40.89999775	0.00000000	30.82554000
41.09999774	0.00000000	23.32677000
41.29999772	0.00000000	14.86836000
41.49999771	0.00000000	8.13853400
41.69999770	0.00000000	4.67519700
41.89999769	0.00000000	4.62598400
42.09999768	0.00000000	7.53567900
42.29999767	0.00000000	12.11860000
42.49999765	0.00000000	16.70768000
42.69999764	0.00000000	19.66658000
42.89999763	0.00000000	20.17101000
43.09999762	0.00000000	18.99606000
43.29999761	0.00000000	17.31668000
43.49999759	0.00000000	15.63115000
43.69999758	0.00000000	14.41314000
43.89999757	0.00000000	14.36393000
44.09999756	0.00000000	15.16978000
44.29999755	0.00000000	15.99409000
44.49999753	0.00000000	16.80610000
44.69999752	0.00000000	16.70768000
44.89999751	0.00000000	15.07136000
45.09999750	0.00000000	12.57997000
45.29999749	0.00000000	10.48843000
45.49999748	0.00000000	9.26427100
45.69999746	0.00000000	9.71948700
45.89999745	0.00000000	12.21703000
46.09999744	0.00000000	15.58194000
46.29999743	0.00000000	18.99606000
46.49999742	0.00000000	21.94882000
46.69999740	0.00000000	23.58514000
46.89999739	0.00000000	23.12992000
47.09999738	0.00000000	20.17101000
47.29999737	0.00000000	15.58194000
47.49999736	0.00000000	10.94980000
47.69999734	0.00000000	7.53567900
47.89999733	0.00000000	5.85014700
48.09999732	0.00000000	6.25615100
48.29999731	0.00000000	8.85211600
48.49999730	0.00000000	13.03519000
48.69999729	0.00000000	18.07948000
48.89999727	0.00000000	21.85039000
49.09999726	0.00000000	23.63435000
49.29999725	0.00000000	23.68356000
49.49999724	0.00000000	22.36097000
49.69999723	0.00000000	19.80807000
49.89999721	0.00000000	16.04331000
50.09999720	0.00000000	12.72761000
50.29999719	0.00000000	10.90059000
50.49999718	0.00000000	10.02707000
50.69999717	0.00000000	9.62721400
50.89999715	0.00000000	10.48843000
51.09999714	0.00000000	12.16781000
51.29999713	0.00000000	14.31471000
51.49999712	0.00000000	16.85531000
51.69999711	0.00000000	18.94685000
51.89999710	0.00000000	20.31865000
52.09999708	0.00000000	21.14296000
52.29999707	0.00000000	21.54281000
52.49999706	0.00000000	20.63238000
52.69999705	0.00000000	18.58391000
52.89999704	0.00000000	15.99409000
53.09999702	0.00000000	13.49040000
53.29999701	0.00000000	11.35581000
53.49999700	0.00000000	10.53765000
53.69999699	0.00000000	10.90059000
53.89999698	0.00000000	12.21703000
54.09999696	0.00000000	14.31471000
54.29999695	0.00000000	16.85531000
54.49999694	0.00000000	18.94685000
54.69999693	0.00000000	20.26944000
54.89999692	0.00000000	20.63238000
55.09999691	0.00000000	19.81422000
55.29999689	0.00000000	17.72884000
55.49999688	0.00000000	15.58194000
55.69999687	0.00000000	13.44119000
55.89999686	0.00000000	11.35581000
56.09999685	0.00000000	10.58686000
56.29999683	0.00000000	11.35581000
56.49999682	0.00000000	13.49040000
56.69999681	0.00000000	15.99409000
56.89999680	0.00000000	18.53469000
57.09999679	0.00000000	20.22022000
57.29999677	0.00000000	20.63238000
57.49999676	0.00000000	19.81422000
57.69999675	0.00000000	17.67962000
57.89999674	0.00000000	15.12057000
58.09999673	0.00000000	12.16781000
58.29999672	0.00000000	9.71948700
58.49999670	0.00000000	9.26427100
58.69999669	0.00000000	10.48843000
58.89999668	0.00000000	12.67840000
59.09999667	0.00000000	16.04331000
59.29999666	0.00000000	19.75886000
59.49999664	0.00000000	21.89960000
59.69999663	0.00000000	22.36097000
59.89999662	0.00000000	21.49360000
60.09999661	0.00000000	18.89764000
60.29999660	0.00000000	15.16978000
60.49999658	0.00000000	11.35581000
60.69999657	0.00000000	8.85211600
60.89999656	0.00000000	7.99089500
61.09999655	0.00000000	9.26427100
61.29999654	0.00000000	12.16781000
61.49999653	0.00000000	15.58194000
61.69999651	0.00000000	18.94685000
61.89999650	-0.17531990	21.49360000
62.09999649	0.00000000	22.36097000
62.29999648	0.00000000	21.99803000
62.49999647	0.00000000	20.68159000
62.69999645	0.00000000	18.58391000
62.89999644	0.00000000	16.04331000
63.09999643	0.00000000	13.90256000
63.29999642	0.00000000	12.21703000
63.49999641	0.00000000	11.35581000
63.69999639	0.00000000	11.70645000
63.89999638	0.00000000	12.06939000
64.09999637	0.00000000	12.21703000
64.29999636	0.00000000	13.08440000
64.49999635	0.00000000	15.16978000
64.69999634	0.00000000	17.21826000
64.89999632	0.00000000	18.58391000
65.09999631	0.00000000	19.45743000
65.29999630	0.00000000	20.31865000
65.49999629	0.00000000	20.68159000
65.69999628	0.00000000	20.22022000
65.89999626	0.00000000	18.48548000
66.09999625	0.00000000	15.53273000
66.29999624	0.00000000	12.16781000
66.49999623	0.00000000	9.26427100
66.69999622	0.00000000	7.99089500
66.89999620	0.00000000	8.80290300
67.09999619	0.00000000	10.94980000
67.29999618	0.00000000	14.36393000
67.49999617	0.00000000	18.63312000
67.69999616	0.00000000	22.87155000
67.89999615	0.00000000	26.63632000
68.09999613	0.00000000	28.27264000
68.29999612	0.00000000	27.04847000
68.49999611	0.00000000	23.63435000
68.69999610	0.00000000	18.53469000
68.89999609	0.00000000	12.62918000
69.09999607	0.00000000	7.58489100
69.29999606	0.00000000	4.62598400
69.49999605	0.00000000	4.62598400
69.69999604	0.00000000	7.53567900
69.89999603	0.00000000	12.16781000
70.09999601	0.00000000	17.31668000
70.29999600	0.00000000	22.41018000
70.49999599	0.00000000	26.63632000
70.69999598	0.00000000	28.72785000
70.89999597	0.00000000	28.32185000
71.09999596	0.00000000	25.31373000
71.29999594	0.00000000	20.26944000
71.49999593	0.00000000	14.36393000
71.69999592	0.00000000	9.26427100
71.89999591	0.00000000	5.85014700
72.09999590	0.00000000	4.57677100
72.29999588	0.00000000	5.85014700
72.49999587	0.00000000	9.26427100
72.69999586	0.00000000	14.31471000
72.89999585	0.00000000	19.76501000
73.09999584	0.00000000	23.58514000
73.29999582	0.00000000	25.36294000
73.49999581	0.00000000	25.36294000
73.69999580	0.00000000	23.58514000
73.89999579	0.00000000	19.81422000
74.09999578	0.00000000	14.72072000
74.29999577	0.00000000	10.12549000
74.49999575	0.00000000	6.66830600
74.69999574	0.00000000	5.48720400
74.89999573	0.00000000	6.66830600
75.09999572	0.00000000	10.12549000
75.29999571	0.00000000	14.72072000
75.49999569	0.00000000	19.81422000
75.69999568	0.00000000	23.58514000
75.89999567	0.00000000	25.31373000
76.09999566	0.00000000	24.85851000
76.29999565	0.00000000	21.89960000
76.49999563	0.00000000	17.26747000
76.69999562	0.00000000	12.21703000
76.89999561	0.00000000	7.99089500
77.09999560	0.00000000	5.89936000
77.29999559	0.00000000	6.30536400
77.49999558	0.00000000	9.26427100
77.69999556	0.00000000	13.95177000
77.89999555	0.00000000	19.45743000
78.09999554	0.00000000	24.90772000
78.29999553	0.00000000	28.27264000
78.49999552	0.00000000	28.67864000
78.69999550	0.00000000	26.13189000
78.89999549	0.00000000	20.68159000
79.09999548	0.00000000	14.36393000
79.29999547	0.00000000	8.80290300
79.49999546	0.00000000	4.57677100
79.69999544	0.00000000	2.94660400
79.89999543	0.00000000	4.62598400
80.09999542	0.00000000	9.31348400
80.29999541	0.00000000	16.04331000
80.49999540	0.00000000	23.22219000
80.69999539	0.00000000	28.72785000
80.89999537	0.00000000	31.73597000
81.09999536	0.00000000	31.68676000
81.29999535	0.00000000	28.27264000
81.49999534	0.00000000	21.94882000
81.69999533	0.00000000	14.36393000
81.89999531	0.00000000	7.58489100
82.09999530	0.00000000	2.89739200
82.29999529	0.00000000	1.21186000
82.49999528	0.00000000	2.89739200
82.69999527	0.00000000	7.58489100
82.89999525	0.00000000	14.36393000
83.09999524	0.00000000	21.94882000
83.29999523	0.00000000	28.27264000
83.49999522	0.00000000	31.73597000
83.69999521	0.00000000	32.19119000
83.89999520	0.00000000	30.05044000
84.09999518	0.00000000	25.31373000
84.29999517	0.00000000	18.58391000
84.49999516	0.00000000	11.40502000
84.69999515	0.00000000	5.89936000
84.89999514	0.00000000	2.84202700
85.09999512	0.00000000	2.43602300
85.29999511	0.00000000	4.52755900
85.49999510	0.00000000	8.85211600
85.69999509	0.00000000	14.76993000
85.89999508	0.00000000	21.54281000
86.09999506	0.00000000	26.99926000
86.29999505	0.00000000	30.05659000
86.49999504	0.00000000	30.46260000
86.69999503	0.00000000	28.37106000
86.89999502	0.00000000	24.09572000
87.09999501	0.00000000	18.53469000
87.29999499	0.00000000	12.16781000
87.49999498	0.00000000	6.30536400
87.69999497	0.00000000	2.89124000
87.89999496	0.00000000	2.43602300
88.09999495	0.00000000	4.57677100
88.29999493	0.00000000	9.21505800
88.49999492	0.00000000	15.12057000
88.69999491	0.00000000	20.68159000
88.89999490	0.00000000	25.36294000
89.09999489	0.00000000	28.32185000
89.29999487	0.00000000	28.72785000
89.49999486	0.00000000	26.63632000
89.69999485	0.00000000	22.41018000
89.89999484	0.00000000	17.31668000
90.09999483	0.00000000	12.21703000
90.29999482	0.00000000	7.99089500
90.49999480	0.00000000	5.85014700
90.69999479	0.00000000	5.85014700
90.89999478	0.00000000	7.99089500
91.09999477	0.00000000	12.21703000
91.29999476	0.00000000	17.21826000
91.49999474	0.00000000	21.49360000
91.69999473	0.00000000	24.09572000
91.89999472	0.00000000	25.36294000
92.09999471	0.00000000	24.90772000
92.29999470	0.00000000	22.41018000
92.49999468	0.00000000	19.04527000
92.69999467	0.00000000	15.63115000
92.89999466	0.00000000	12.67840000
93.09999465	0.00000000	10.99901000
93.29999464	0.00000000	10.94980000
93.49999463	0.00000000	12.16781000
93.69999461	0.00000000	13.85334000
93.89999460	0.00000000	15.58194000
94.09999459	0.00000000	17.31668000
94.29999458	0.00000000	18.99606000
94.49999457	0.00000000	20.26944000
94.69999455	0.00000000	20.68159000
94.89999454	0.00000000	20.31865000
95.09999453	0.00000000	19.45743000
95.29999452	0.00000000	18.58391000
95.49999451	0.00000000	17.31668000
95.69999449	0.00000000	16.09252000
95.89999448	0.00000000	15.63115000
96.09999447	0.00000000	15.58194000
96.29999446	0.00000000	15.58194000
96.49999445	0.00000000	15.58194000
96.69999444	0.00000000	15.63115000
96.89999442	0.00000000	16.04331000
97.09999441	0.00000000	16.85531000
97.29999440	0.00000000	17.31668000
97.49999439	0.00000000	17.77805000
97.69999438	0.00000000	18.58391000
97.89999436	0.00000000	18.99606000
98.09999435	0.00000000	19.04527000
98.29999434	0.00000000	18.99606000
98.49999433	0.00000000	18.58391000
98.69999432	0.00000000	17.72884000
98.89999430	0.00000000	16.90453000
99.09999429	0.00000000	16.04331000
99.29999428	0.00000000	15.63115000
99.49999427	0.00000000	15.58194000
99.69999426	0.00000000	15.58194000
99.89999425	0.00000000	15.63115000
100.09999423	0.00000000	16.09252000
100.29999422	0.00000000	17.31668000
100.49999421	0.00000000	18.53469000
100.69999420	0.00000000	18.99606000
100.89999419	0.00000000	19.04527000
101.09999417	0.00000000	19.04527000
101.29999416	0.00000000	18.99606000
101.49999415	0.00000000	18.53469000
101.69999414	0.00000000	17.31668000
101.89999413	0.00000000	16.04331000
102.09999411	0.00000000	15.16978000
102.29999410	0.00000000	14.36393000
102.49999409	0.00000000	14.36393000
102.69999408	0.00000000	15.16978000
102.89999407	0.00000000	16.04331000
103.09999406	0.00000000	17.31668000
103.29999404	0.00000000	18.53469000
103.49999403	0.00000000	18.99606000
103.69999402	0.00000000	19.04527000
103.89999401	0.00000000	18.99606000
104.09999400	0.00000000	18.53469000
104.29999398	0.00000000	17.31668000
104.49999397	0.00000000	16.04331000
104.69999396	0.00000000	15.21900000
104.89999395	0.00000000	14.76993000
105.09999394	0.00000000	15.16978000
105.29999392	0.00000000	15.58194000
105.49999391	0.00000000	16.09252000
105.69999390	0.00000000	17.31668000
105.89999389	0.00000000	18.53469000
106.09999388	0.00000000	18.99606000
106.29999387	0.00000000	19.04527000
106.49999385	0.00000000	18.99606000
106.69999384	0.00000000	18.53469000
106.89999383	0.00000000	17.26747000
107.09999382	0.00000000	15.63115000
107.29999381	0.00000000	14.36393000
107.49999379	0.00000000	13.95177000
107.69999378	0.00000000	14.36393000
107.89999377	0.00000000	15.63115000
108.09999376	0.00000000	17.31668000
108.29999375	0.00000000	18.99606000
108.49999374	0.00000000	20.26944000
108.69999372	0.00000000	20.73080000
108.89999371	0.00000000	20.73080000
109.09999370	0.00000000	20.22022000
109.29999369	0.00000000	18.53469000
