Time	Channel A	Channel B
(us)	(V)	(mV)

-4.59999956	0.00000000	-1.72859200
-4.39999957	0.00000000	-1.72859200
-4.19999958	0.00000000	-1.72859200
-3.99999959	0.00000000	-1.72859200
-3.79999960	0.00000000	-1.72859200
-3.59999962	0.00000000	-1.72859200
-3.39999963	0.00000000	-1.72859200
-3.19999964	0.00000000	-1.72859200
-2.99999965	0.00000000	-1.72859200
-2.79999966	0.00000000	-1.72859200
-2.59999968	0.00000000	-1.72859200
-2.39999969	0.00000000	-1.72859200
-2.19999970	0.00000000	-1.72859200
-1.99999971	0.00000000	-1.72859200
-1.79999972	0.00000000	-1.72859200
-1.59999973	0.00000000	-1.72859200
-1.39999975	0.00000000	-1.72859200
-1.19999976	0.00000000	-1.72859200
-0.99999977	0.00000000	-1.72859200
-0.79999978	0.00000000	-1.72859200
-0.59999979	0.00000000	-1.72859200
-0.39999981	0.35125490	-1.72859200
-0.19999982	0.70250980	-1.72859200
0.00000017	0.87844490	-1.72859200
0.20000016	1.05376500	-1.72859200
0.40000015	0.70250980	-1.72859200
0.60000013	0.17531990	-1.72859200
0.80000012	-0.70250980	-1.72859200
1.00000011	-1.58095500	-1.72859200
1.20000010	-2.45940000	-1.72859200
1.40000009	-2.81127000	-1.72859200
1.60000008	-2.28408000	-1.72859200
1.80000006	-1.05376500	-1.72859200
2.00000005	0.87844490	-1.72859200
2.20000004	2.98659000	-1.72859200
2.40000003	4.56816000	-1.72859200
2.60000002	5.44660400	-1.77780500
2.80000000	4.56816000	-2.14074800
2.99999999	2.45940000	-2.54060000
3.19999998	-0.70250980	-2.14074800
3.39999997	-4.04096900	-1.77780500
3.59999996	-6.85223900	-1.67938000
3.79999994	-7.90661900	-1.26722400
3.99999993	-7.20410900	-0.46136810
4.19999992	-4.39283900	-0.09842519
4.39999991	-0.35125490	-0.46136810
4.59999990	4.04096900	-1.26722400
4.79999989	7.73129900	-1.67938000
4.99999987	9.48818900	-1.77780500
5.19999986	8.78567900	-2.18996000
5.39999985	5.97379400	-2.95275600
5.59999984	1.40563500	-2.95275600
5.79999983	-3.33846000	-2.18996000
5.99999981	-7.20410900	-1.77780500
6.19999980	-9.31225400	-1.72859200
6.39999979	-9.13693400	-1.72859200
6.59999978	-6.50098400	-1.72859200
6.79999977	-2.45940000	-1.72859200
6.99999975	1.75689000	-1.72859200
7.19999974	5.44660400	-1.72859200
7.39999973	7.37942900	-1.72859200
7.59999972	7.55536400	-1.77780500
7.79999971	5.62254000	-2.14074800
7.99999970	2.63533500	-2.54060000
8.19999968	-0.52657480	-2.14074800
8.39999967	-3.33846000	-1.77780500
8.59999966	-4.91941500	-1.72859200
8.79999965	-5.09534900	-1.72859200
8.99999964	-3.86565000	-1.72859200
9.19999962	-2.10814500	-1.72859200
9.39999961	-0.17531990	-1.72859200
9.59999960	1.40563500	-1.72859200
9.79999959	2.28408000	-1.72859200
9.99999958	2.45940000	-1.72859200
10.19999956	1.93282500	-1.72859200
10.39999955	1.05376500	-1.72859200
10.59999954	0.17531990	-1.72859200
10.79999953	-0.52657480	-1.72859200
10.99999952	-0.87844490	-1.72859200
11.19999951	-1.05376500	-1.72859200
11.39999949	-0.70250980	-1.72859200
11.59999948	-0.52657480	-1.72859200
11.79999947	-0.17531990	-1.72859200
11.99999946	0.00000000	-1.72859200
12.19999945	0.00000000	-1.72859200
12.39999943	0.00000000	-1.72859200
12.59999942	-0.17531990	-1.72859200
12.79999941	-0.17531990	-1.72859200
12.99999940	-0.17531990	-1.72859200
13.19999939	-0.17531990	-1.72859200
13.39999937	0.00000000	-1.72859200
13.59999936	0.00000000	-1.72859200
13.79999935	0.00000000	-1.72859200
13.99999934	0.00000000	-1.72859200
14.19999933	0.00000000	-1.72859200
14.39999932	0.00000000	-1.72859200
14.59999930	0.00000000	-1.72859200
14.79999929	0.00000000	-1.72859200
14.99999928	0.00000000	-1.72859200
15.19999927	0.00000000	-1.72859200
15.39999926	0.00000000	-1.77780500
15.59999924	0.00000000	-2.14074800
15.79999923	0.00000000	-2.54060000
15.99999922	0.00000000	-2.18996000
16.19999921	0.00000000	-2.18996000
16.39999920	0.00000000	-2.54060000
16.59999919	0.00000000	-2.14074800
16.79999917	0.00000000	-1.77780500
16.99999916	0.00000000	-1.72859200
17.19999915	0.00000000	-1.72859200
17.39999914	0.00000000	-1.72859200
17.59999913	0.00000000	-1.72859200
17.79999911	0.00000000	-1.72859200
17.99999910	0.00000000	-1.72859200
18.19999909	0.00000000	-1.72859200
18.39999908	0.00000000	-1.72859200
18.59999907	0.00000000	-1.72859200
18.79999905	0.00000000	-1.72859200
18.99999904	0.00000000	-1.72859200
19.19999903	0.00000000	-1.72859200
19.39999902	0.00000000	-1.72859200
19.59999901	0.00000000	-1.72859200
19.79999900	0.00000000	-1.72859200
19.99999898	0.00000000	-1.72859200
20.19999897	0.00000000	-1.72859200
20.39999896	0.00000000	-1.72859200
20.59999895	0.00000000	-1.72859200
20.79999894	0.00000000	-1.72859200
20.99999892	0.00000000	-1.72859200
21.19999891	0.00000000	-1.72859200
21.39999890	0.00000000	-1.72859200
21.59999889	0.00000000	-1.72859200
21.79999888	0.00000000	-1.72859200
21.99999886	0.00000000	-1.72859200
22.19999885	0.00000000	-1.72859200
22.39999884	0.00000000	-1.72859200
22.59999883	0.00000000	-1.72859200
22.79999882	0.00000000	-1.77780500
22.99999881	0.00000000	-2.18996000
23.19999879	0.00000000	-3.00196800
23.39999878	0.00000000	-3.41412400
23.59999877	0.00000000	-3.46333600
23.79999876	0.00000000	-3.46333600
23.99999875	0.00000000	-3.41412400
24.19999873	0.00000000	-2.95275600
24.39999872	0.00000000	-1.63016700
24.59999871	0.00000000	0.36294290
24.79999870	0.00000000	2.03617100
24.99999869	0.00000000	2.09153500
25.19999867	0.00000000	1.67938000
25.39999866	0.00000000	0.71358260
25.59999865	0.00000000	-1.77780500
25.79999864	0.00000000	-4.73056000
25.99999863	0.00000000	-7.33882900
26.19999862	0.00000000	-9.83021600
26.39999860	0.00000000	-11.05438000
26.59999859	0.00000000	-10.14395000
26.79999858	0.00000000	-7.17888700
26.99999857	0.00000000	-2.04232300
27.19999856	0.00000000	3.87549200
27.39999854	0.00000000	9.83021600
27.59999853	0.00000000	14.37008000
27.79999852	0.00000000	15.59424000
27.99999851	0.00000000	12.59227000
28.19999850	0.00000000	5.76402500
28.39999848	0.00000000	-4.07234200
28.59999847	0.00000000	-15.43430000
28.79999846	0.00000000	-25.47367000
28.99999845	0.00000000	-30.46875000
29.19999844	0.00000000	-28.78937000
29.39999843	0.00000000	-20.68774000
29.59999841	0.00000000	-7.49261800
29.79999840	0.00000000	8.60605200
29.99999839	0.00000000	24.20029000
30.19999838	0.00000000	35.10704000
30.39999837	0.00000000	38.01673000
30.59999835	0.00000000	31.59449000
30.79999834	0.00000000	16.76304000
30.99999833	0.00000000	-3.56176100
31.19999832	0.00000000	-24.71087000
31.39999831	0.00000000	-42.03371000
31.59999829	0.00000000	-51.26107000
31.79999828	0.00000000	-49.48326000
31.99999827	0.00000000	-36.33120000
32.19999826	0.00000000	-14.37008000
32.39999825	0.00000000	11.05438000
32.59999824	0.00000000	34.34424000
32.79999822	0.00000000	50.75049000
32.99999821	0.00000000	55.33957000
33.19999820	0.00000000	46.47514000
33.39999819	0.00000000	26.59941000
33.59999818	0.00000000	-0.09842519
33.79999816	0.00000000	-27.56521000
33.99999815	0.00000000	-49.57554000
34.19999814	0.00000000	-60.99286000
34.39999813	0.00000000	-59.31348000
34.59999812	0.00000000	-44.89419000
34.79999810	0.00000000	-20.78617000
34.99999809	0.00000000	7.54183000
35.19999808	0.00000000	33.32308000
35.39999807	0.00000000	50.70127000
35.59999806	0.00000000	55.80093000
35.79999805	0.00000000	47.79773000
35.99999803	0.00000000	28.78937000
36.19999802	0.00000000	3.41412400
36.39999801	0.00000000	-22.42249000
36.59999800	0.00000000	-43.11023000
36.79999799	0.00000000	-53.70325000
36.99999797	0.00000000	-51.62401000
37.19999796	0.00000000	-38.21358000
37.39999795	0.00000000	-17.07062000
37.59999794	0.00000000	6.12081600
37.79999793	0.00000000	26.03961000
37.99999791	0.00000000	37.91830000
38.19999790	0.00000000	39.69611000
38.39999789	0.00000000	31.69291000
38.59999788	0.00000000	16.10482000
38.79999787	0.00000000	-2.80511800
38.99999786	0.00000000	-19.71580000
39.19999784	0.00000000	-30.37032000
39.39999783	0.00000000	-33.37229000
39.59999782	0.00000000	-28.37721000
39.79999781	0.00000000	-17.07062000
39.99999780	0.00000000	-3.61097400
40.19999778	0.00000000	8.66756800
40.39999777	0.00000000	16.71383000
40.59999776	0.00000000	18.86073000
40.79999775	0.00000000	15.18209000
40.99999774	0.00000000	7.24040300
41.19999772	0.00000000	-1.53174200
41.39999771	0.00000000	-8.76599300
41.59999770	0.00000000	-12.59227000
41.79999769	0.00000000	-12.69070000
41.99999768	0.00000000	-9.78100300
42.19999767	0.00000000	-5.19192900
42.39999765	0.00000000	-0.60900590
42.59999764	0.00000000	2.39911400
42.79999763	0.00000000	3.26648600
42.99999762	0.00000000	2.49753900
43.19999761	0.00000000	0.41215550
43.39999759	0.00000000	-1.63016700
43.59999758	0.00000000	-2.95275600
43.79999757	0.00000000	-3.31569900
43.99999756	0.00000000	-2.54675200
44.19999755	0.00000000	-0.86737200
44.39999753	0.00000000	0.31373030
44.59999752	0.00000000	0.71358260
44.79999751	0.00000000	-0.60900590
44.99999750	0.00000000	-3.46333600
45.19999749	0.00000000	-6.36687900
45.39999748	0.00000000	-8.04626000
45.59999746	0.00000000	-8.04626000
45.79999745	0.00000000	-6.31766700
45.99999744	0.00000000	-2.95275600
46.19999743	0.00000000	1.21801200
46.39999742	0.00000000	4.58292300
46.59999740	0.00000000	6.31766700
46.79999739	0.00000000	6.26845500
46.99999738	0.00000000	4.12770700
47.19999737	0.00000000	-0.09842519
47.39999736	0.00000000	-5.09350300
47.59999734	0.00000000	-9.36884800
47.79999733	0.00000000	-11.87254000
47.99999732	0.00000000	-12.32775000
48.19999731	0.00000000	-10.19316000
48.39999730	0.00000000	-6.41609200
48.59999729	0.00000000	-1.72859200
48.79999727	0.00000000	2.90354300
48.99999726	0.00000000	6.26845500
49.19999725	0.00000000	7.54183000
49.39999724	0.00000000	6.31766700
49.59999723	0.00000000	3.41412400
49.79999721	0.00000000	0.00000000
49.99999720	0.00000000	-3.41412400
50.19999719	0.00000000	-6.41609200
50.39999718	0.00000000	-8.50762700
50.59999717	0.00000000	-9.36884800
50.79999715	0.00000000	-8.55684000
50.99999714	0.00000000	-6.87746000
51.19999713	0.00000000	-4.68134800
51.39999712	0.00000000	-1.77780500
51.59999711	0.00000000	0.81200780
51.79999710	0.00000000	2.54675200
51.99999708	0.00000000	4.22613100
52.19999707	0.00000000	4.58292300
52.39999706	0.00000000	3.36491100
52.59999705	0.00000000	1.22416300
52.79999704	0.00000000	-1.72859200
52.99999702	0.00000000	-4.68134800
53.19999701	0.00000000	-6.82824800
53.39999700	0.00000000	-8.09547100
53.59999699	0.00000000	-8.09547100
53.79999698	0.00000000	-6.82824800
53.99999696	0.00000000	-4.68134800
54.19999695	0.00000000	-1.72859200
54.39999694	0.00000000	1.17495100
54.59999693	0.00000000	2.90354300
54.79999692	0.00000000	3.36491100
54.99999691	0.00000000	2.90354300
55.19999689	0.00000000	1.17495100
55.39999688	0.00000000	-1.72859200
55.59999687	0.00000000	-4.63213500
55.79999686	0.00000000	-6.36687900
55.99999685	0.00000000	-6.82824800
56.19999683	0.00000000	-6.36687900
56.39999682	0.00000000	-4.63213500
56.59999681	0.00000000	-1.72859200
56.79999680	0.00000000	1.17495100
56.99999679	0.00000000	2.90354300
57.19999677	0.00000000	3.31569900
57.39999676	0.00000000	2.49753900
57.59999675	0.00000000	0.31373030
57.79999674	0.00000000	-2.60211600
57.99999673	0.00000000	-6.00393600
58.19999672	0.00000000	-8.45841400
58.39999670	0.00000000	-9.31963500
58.59999669	0.00000000	-8.04626000
58.79999668	0.00000000	-5.09350300
58.99999667	0.00000000	-1.31643700
59.19999666	0.00000000	2.49753900
59.39999664	0.00000000	4.99507900
59.59999663	0.00000000	5.90551100
59.79999662	0.00000000	4.99507900
59.99999661	0.00000000	2.49753900
60.19999660	0.00000000	-1.31643700
60.39999658	0.00000000	-5.09350300
60.59999657	0.00000000	-8.09547100
60.79999656	0.00000000	-9.78100300
60.99999655	0.00000000	-9.78100300
61.19999654	0.00000000	-8.04626000
61.39999653	0.00000000	-4.68134800
61.59999651	0.00000000	-0.51058070
61.79999650	0.00000000	2.90354300
61.99999649	0.00000000	4.99507900
62.19999648	0.00000000	5.45029500
62.39999647	0.00000000	3.77706700
62.59999645	0.00000000	1.27337600
62.79999644	0.00000000	-1.72859200
62.99999643	0.00000000	-4.68134800
63.19999642	0.00000000	-6.77903500
63.39999641	0.00000000	-7.68946800
63.59999639	0.00000000	-7.28961600
63.79999638	0.00000000	-6.46530500
63.99999637	0.00000000	-5.14271600
64.19999636	0.00000000	-3.46333600
64.39999635	0.00000000	-1.72859200
64.59999634	0.00000000	-0.04921259
64.79999632	0.00000000	1.26722400
64.99999631	0.00000000	2.14074800
65.19999630	0.00000000	2.95275600
65.39999629	0.00000000	2.90354300
65.59999628	0.00000000	1.63016700
65.79999626	0.00000000	-0.46136810
65.99999625	0.00000000	-3.05118100
66.19999624	0.00000000	-5.60408400
66.39999623	0.00000000	-8.19389700
66.59999622	0.00000000	-10.24237000
66.79999620	0.00000000	-11.05438000
66.99999619	0.00000000	-9.73179100
67.19999618	0.00000000	-6.41609200
67.39999617	0.00000000	-2.14074800
67.59999616	0.00000000	2.14074800
67.79999615	0.00000000	6.36687900
67.99999613	0.00000000	9.22736200
68.19999612	0.00000000	9.22736200
68.39999611	0.00000000	6.31766700
68.59999610	0.00000000	1.63016700
68.79999609	0.00000000	-3.87549200
68.99999607	0.00000000	-9.37500000
69.19999606	0.00000000	-13.14591000
69.39999605	0.00000000	-14.46850000
69.59999604	0.00000000	-13.14591000
69.79999603	0.00000000	-9.37500000
69.99999601	0.00000000	-3.87549200
70.19999600	0.00000000	1.63016700
70.39999599	0.00000000	6.31766700
70.59999598	0.00000000	9.27657400
70.79999597	0.00000000	9.73179100
70.99999596	0.00000000	7.99704600
71.19999594	0.00000000	4.17691900
71.39999593	0.00000000	-1.37180100
71.59999592	0.00000000	-7.24040300
71.79999591	0.00000000	-12.27854000
71.99999590	0.00000000	-14.41929000
72.19999588	0.00000000	-13.65650000
72.39999587	0.00000000	-11.10359000
72.59999586	0.00000000	-6.82824800
72.79999585	0.00000000	-1.72859200
72.99999584	0.00000000	3.36491100
73.19999582	0.00000000	7.54183000
73.39999581	0.00000000	9.22121000
73.59999580	0.00000000	7.99704600
73.79999579	0.00000000	4.63213500
73.99999578	0.00000000	-0.04921259
74.19999577	0.00000000	-5.09350300
74.39999575	0.00000000	-9.36884800
74.59999574	0.00000000	-11.92175000
74.79999573	0.00000000	-12.73376000
74.99999572	0.00000000	-11.00517000
75.19999571	0.00000000	-6.82824800
75.39999569	0.00000000	-1.72859200
75.59999568	0.00000000	3.31569900
75.79999567	0.00000000	7.08046200
75.99999566	0.00000000	7.94783400
76.19999565	0.00000000	6.31766700
76.39999563	0.00000000	2.85433100
76.59999562	0.00000000	-2.18996000
76.79999561	0.00000000	-7.64025500
76.99999560	0.00000000	-11.46038000
77.19999559	0.00000000	-13.14591000
77.39999558	0.00000000	-12.27854000
77.59999556	0.00000000	-8.45841400
77.79999555	0.00000000	-3.00196800
77.99999554	0.00000000	2.95275600
78.19999553	0.00000000	7.99704600
78.39999552	0.00000000	10.90674000
78.59999550	0.00000000	10.44537000
78.79999549	0.00000000	6.26845500
78.99999548	0.00000000	-0.04921259
79.19999547	0.00000000	-6.82824800
79.39999546	0.00000000	-12.73991000
79.59999544	0.00000000	-16.10482000
79.79999543	0.00000000	-16.10482000
79.99999542	0.00000000	-12.69070000
80.19999541	0.00000000	-6.36687900
80.39999540	0.00000000	1.21801200
80.59999539	0.00000000	7.99704600
80.79999537	0.00000000	12.63533000
80.99999536	0.00000000	13.90871000
81.19999535	0.00000000	11.36196000
81.39999534	0.00000000	5.86245000
81.59999533	0.00000000	-1.77780500
81.79999531	0.00000000	-9.78100300
81.99999530	0.00000000	-16.09867000
82.19999529	0.00000000	-19.10679000
82.39999528	0.00000000	-18.28863000
82.59999527	0.00000000	-14.41929000
82.79999525	0.00000000	-7.64025500
82.99999524	0.00000000	0.76279520
83.19999523	0.00000000	7.94783400
83.39999522	0.00000000	12.68455000
83.59999521	0.00000000	14.37008000
83.79999520	0.00000000	12.68455000
83.99999518	0.00000000	7.99704600
84.19999517	0.00000000	1.21801200
84.39999516	0.00000000	-6.36687900
84.59999515	0.00000000	-12.73991000
84.79999514	0.00000000	-16.60925000
84.99999512	0.00000000	-17.88263000
85.19999511	0.00000000	-16.14788000
85.39999510	0.00000000	-11.50960000
85.59999509	0.00000000	-5.14271600
85.79999508	0.00000000	1.63016700
85.99999506	0.00000000	7.59104300
86.19999505	0.00000000	11.41117000
86.39999504	0.00000000	12.68455000
86.59999503	0.00000000	10.95595000
86.79999502	0.00000000	6.31766700
86.99999501	0.00000000	0.04921259
87.19999499	0.00000000	-5.96087600
87.39999498	0.00000000	-10.70374000
87.59999497	0.00000000	-14.51772000
87.79999496	0.00000000	-16.09867000
87.99999495	0.00000000	-14.46850000
88.19999493	0.00000000	-10.24237000
88.39999492	0.00000000	-4.73671200
88.59999491	0.00000000	1.22416300
88.79999490	0.00000000	6.26845500
88.99999489	0.00000000	9.32578700
89.19999487	0.00000000	10.14395000
89.39999486	0.00000000	8.81520600
89.59999485	0.00000000	4.58907500
89.79999484	0.00000000	-1.27337600
89.99999483	0.00000000	-6.77903500
90.19999482	0.00000000	-11.05438000
90.39999480	0.00000000	-13.19513000
90.59999479	0.00000000	-13.19513000
90.79999478	0.00000000	-11.05438000
90.99999477	0.00000000	-6.87746000
91.19999476	0.00000000	-2.23917300
91.39999474	0.00000000	1.63016700
91.59999473	0.00000000	4.63213500
91.79999472	0.00000000	6.26845500
91.99999471	0.00000000	5.86245000
92.19999470	0.00000000	3.36491100
92.39999468	0.00000000	0.04921259
92.59999467	0.00000000	-3.00196800
92.79999466	0.00000000	-5.55487200
92.99999465	0.00000000	-7.64025500
93.19999464	0.00000000	-8.04626000
93.39999463	0.00000000	-6.87746000
93.59999461	0.00000000	-5.19192900
93.79999460	0.00000000	-3.46333600
93.99999459	0.00000000	-1.72859200
94.19999458	0.00000000	-0.04921259
94.39999457	0.00000000	1.21801200
94.59999455	0.00000000	1.63016700
94.79999454	0.00000000	1.21801200
94.99999453	0.00000000	0.00000000
95.19999452	0.00000000	-1.21801200
95.39999451	0.00000000	-1.72859200
95.59999449	0.00000000	-2.18996000
95.79999448	0.00000000	-3.00196800
95.99999447	0.00000000	-3.41412400
96.19999446	0.00000000	-3.46333600
96.39999445	0.00000000	-3.46333600
96.59999444	0.00000000	-3.46333600
96.79999442	0.00000000	-3.41412400
96.99999441	0.00000000	-3.00196800
97.19999440	0.00000000	-2.18996000
97.39999439	0.00000000	-1.77780500
97.59999438	0.00000000	-1.67938000
97.79999436	0.00000000	-1.26722400
97.99999435	0.00000000	-0.51058070
98.19999434	0.00000000	-0.51058070
98.39999433	0.00000000	-1.26722400
98.59999432	0.00000000	-1.72859200
98.79999430	0.00000000	-2.18996000
98.99999429	0.00000000	-3.00196800
99.19999428	0.00000000	-3.41412400
99.39999427	0.00000000	-3.46333600
99.59999426	0.00000000	-3.46333600
99.79999425	0.00000000	-3.41412400
99.99999423	0.00000000	-3.00196800
100.19999422	0.00000000	-2.18996000
100.39999421	0.00000000	-1.72859200
100.59999420	0.00000000	-1.26722400
100.79999419	0.00000000	-0.46136810
100.99999417	0.00000000	-0.09842519
101.19999416	0.00000000	-0.46136810
101.39999415	0.00000000	-1.31643700
101.59999414	0.00000000	-2.14074800
101.79999413	0.00000000	-3.05118100
101.99999411	0.00000000	-3.87549200
102.19999410	0.00000000	-4.73056000
102.39999409	0.00000000	-5.09350300
102.59999408	0.00000000	-4.73056000
102.79999407	0.00000000	-3.87549200
102.99999406	0.00000000	-3.00196800
103.19999404	0.00000000	-1.72859200
103.39999403	0.00000000	-0.51058070
103.59999402	0.00000000	-0.04921259
103.79999401	0.00000000	-0.04921259
103.99999400	0.00000000	-0.46136810
104.19999398	0.00000000	-1.31643700
104.39999397	0.00000000	-2.18996000
104.59999396	0.00000000	-3.46333600
104.79999395	0.00000000	-4.68134800
104.99999394	0.00000000	-5.09350300
105.19999392	0.00000000	-4.73056000
105.39999391	0.00000000	-3.87549200
105.59999390	0.00000000	-3.00196800
105.79999389	0.00000000	-1.72859200
105.99999388	0.00000000	-0.51058070
106.19999387	0.00000000	-0.04921259
106.39999385	0.00000000	-0.04921259
106.59999384	0.00000000	-0.46136810
106.79999383	0.00000000	-1.36565000
106.99999382	0.00000000	-2.59596400
107.19999381	0.00000000	-4.27534400
107.39999379	0.00000000	-5.09350300
107.59999378	0.00000000	-5.19192900
107.79999377	0.00000000	-5.09350300
107.99999376	0.00000000	-4.22613100
108.19999375	0.00000000	-2.14074800
108.39999374	0.00000000	-0.09842519
108.59999372	0.00000000	1.21801200
108.79999371	0.00000000	1.63016700
108.99999370	0.00000000	1.21801200
109.19999369	0.00000000	-0.04921259
