Time	Channel A	Channel B
(us)	(V)	(mV)

-4.49999956	0.00000000	-1.63016700
-4.29999957	0.00000000	-1.31643700
-4.09999958	0.00000000	-0.91658460
-3.89999959	0.00000000	-1.31643700
-3.69999960	0.00000000	-1.63016700
-3.49999962	0.00000000	-1.31643700
-3.29999963	0.00000000	-0.91658460
-3.09999964	0.00000000	-1.26722400
-2.89999965	0.00000000	-1.26722400
-2.69999966	0.00000000	-0.91658460
-2.49999968	0.00000000	-1.31643700
-2.29999969	0.00000000	-1.67938000
-2.09999970	0.00000000	-1.72859200
-1.89999971	0.00000000	-1.72859200
-1.69999972	0.00000000	-1.72859200
-1.49999973	0.00000000	-1.72859200
-1.29999975	0.00000000	-1.67938000
-1.09999976	0.00000000	-1.26722400
-0.89999977	0.00000000	-0.46136810
-0.69999978	0.00000000	-0.04921259
-0.49999979	0.00000000	0.00000000
-0.29999981	0.35125490	-0.04921259
-0.09999982	0.70250980	-0.46136810
0.10000017	1.05376500	-1.26722400
0.30000016	1.05376500	-1.67938000
0.50000015	0.70250980	-1.72859200
0.70000013	0.00000000	-1.72859200
0.90000012	-0.87844490	-1.72859200
1.10000011	-1.75689000	-1.67938000
1.30000010	-2.63533500	-1.26722400
1.50000009	-2.81127000	-0.46136810
1.70000008	-2.10814500	-0.04921259
1.90000006	-0.70250980	0.00000000
2.10000005	1.22970000	-0.04921259
2.30000004	3.33846000	-0.46136810
2.50000003	4.91941500	-1.26722400
2.70000002	5.27128500	-1.67938000
2.90000000	4.39283900	-1.77780500
3.09999999	2.10814500	-2.14074800
3.29999998	-1.22970000	-2.54060000
3.49999997	-4.56816000	-2.09153500
3.69999996	-7.20410900	-1.31643700
3.89999994	-8.08255400	-0.41215550
4.09999993	-6.85223900	0.41215550
4.29999992	-3.86565000	1.21801200
4.49999991	0.52657480	1.21801200
4.69999990	4.74409400	0.46136810
4.89999989	8.08255400	0.00000000
5.09999987	9.48818900	-0.46136810
5.29999986	8.43380900	-1.31643700
5.49999985	5.27128500	-2.14074800
5.69999984	0.70250980	-2.95275600
5.89999983	-3.86565000	-2.95275600
6.09999981	-7.73129900	-2.14074800
6.29999980	-9.48818900	-1.31643700
6.49999979	-8.78567900	-0.46136810
6.69999978	-5.97379400	-0.04921259
6.89999977	-1.93282500	0.00000000
7.09999975	2.45940000	-0.04921259
7.29999974	5.97379400	-0.46136810
7.49999973	7.55536400	-1.26722400
7.69999972	7.37942900	-1.72859200
7.89999971	5.27128500	-2.14074800
8.09999970	2.10814500	-2.54060000
8.29999968	-1.22970000	-2.14074800
8.49999967	-3.68971500	-1.77780500
8.69999966	-5.09534900	-1.67938000
8.89999965	-4.91941500	-1.26722400
9.09999964	-3.68971500	-0.46136810
9.29999962	-1.75689000	-0.04921259
9.49999961	0.17531990	0.00000000
9.69999960	1.58095500	-0.04921259
9.89999959	2.45940000	-0.46136810
10.09999958	2.45940000	-1.31643700
10.29999956	1.75689000	-2.09153500
10.49999955	0.87844490	-2.54060000
10.69999954	0.00000000	-2.09153500
10.89999953	-0.52657480	-1.36565000
11.09999952	-0.87844490	-0.91658460
11.29999951	-0.87844490	-1.26722400
11.49999949	-0.70250980	-1.21801200
11.69999948	-0.35125490	-0.51058070
11.89999947	-0.17531990	-0.46136810
12.09999946	0.00000000	-0.86122040
12.29999945	0.00000000	-0.81815940
12.49999943	-0.17531990	-0.91043300
12.69999942	-0.17531990	-0.86737200
12.89999941	-0.17531990	-1.31643700
13.09999940	-0.17531990	-1.67938000
13.29999939	-0.17531990	-1.72859200
13.49999937	-0.17531990	-1.67938000
13.69999936	0.00000000	-1.26722400
13.89999935	0.00000000	-0.46136810
14.09999934	0.00000000	-0.09842519
14.29999933	0.00000000	-0.41215550
14.49999932	0.00000000	-0.86122040
14.69999930	0.00000000	-0.86737200
14.89999929	0.00000000	-1.31643700
15.09999928	0.00000000	-1.63016700
15.29999927	0.00000000	-1.26722400
15.49999926	0.00000000	-0.51058070
15.69999924	0.00000000	-0.46136810
15.89999923	0.00000000	-0.81200780
16.09999922	0.00000000	-0.46136810
16.29999921	0.00000000	-0.51058070
16.49999920	0.00000000	-1.26722400
16.69999919	0.00000000	-1.63016700
16.89999917	0.00000000	-1.31643700
17.09999916	0.00000000	-0.91658460
17.29999915	0.00000000	-1.31643700
17.49999914	0.00000000	-1.72859200
17.69999913	0.00000000	-2.09153500
17.89999911	0.00000000	-2.13459600
18.09999910	0.00000000	-1.32874000
18.29999909	0.00000000	-1.31643700
18.49999908	0.00000000	-1.21801200
18.69999907	0.00000000	-0.46136810
18.89999905	0.00000000	-0.09842519
19.09999904	0.00000000	-0.41215550
19.29999903	0.00000000	-0.86122040
19.49999902	0.00000000	-0.81815940
19.69999901	0.00000000	-0.86122040
19.89999900	0.00000000	-0.46136810
20.09999898	0.00000000	-0.51058070
20.29999897	0.00000000	-1.21801200
20.49999896	0.00000000	-1.26722400
20.69999895	0.00000000	-0.86737200
20.89999894	0.00000000	-0.86122040
21.09999892	0.00000000	-0.41215550
21.29999891	0.00000000	-0.09842519
21.49999890	0.00000000	-0.41215550
21.69999889	0.00000000	-0.81200780
21.89999888	0.00000000	-0.41215550
22.09999886	0.00000000	-0.09842519
22.29999885	0.00000000	-0.46136810
22.49999884	0.00000000	-1.26722400
22.69999883	0.00000000	-1.67938000
22.89999882	0.00000000	-1.72859200
23.09999881	0.00000000	-1.72859200
23.29999879	0.00000000	-1.72859200
23.49999878	0.00000000	-1.72859200
23.69999877	0.00000000	-1.72859200
23.89999876	0.00000000	-1.72859200
24.09999875	0.00000000	-1.67938000
24.29999873	0.00000000	-1.21801200
24.49999872	0.00000000	0.00000000
24.69999871	0.00000000	1.26722400
24.89999870	0.00000000	2.14074800
25.09999869	0.00000000	2.95275600
25.29999867	0.00000000	2.90354300
25.49999866	0.00000000	1.63016700
25.69999865	0.00000000	-0.51058070
25.89999864	0.00000000	-3.46333600
26.09999863	0.00000000	-6.41609200
26.29999862	0.00000000	-8.55684000
26.49999860	0.00000000	-9.78100300
26.69999859	0.00000000	-9.22736200
26.89999858	0.00000000	-5.86245000
27.09999857	0.00000000	-0.36294290
27.29999856	0.00000000	5.55487200
27.49999854	0.00000000	11.10359000
27.69999853	0.00000000	14.77608000
27.89999852	0.00000000	15.18209000
28.09999851	0.00000000	11.31275000
28.29999850	0.00000000	4.07849400
28.49999848	0.00000000	-5.70251000
28.69999847	0.00000000	-16.14788000
28.89999846	0.00000000	-23.78814000
29.09999845	0.00000000	-26.70398000
29.29999844	0.00000000	-24.50787000
29.49999843	0.00000000	-15.95718000
29.69999841	0.00000000	-2.85433100
29.89999840	0.00000000	12.02018000
30.09999839	0.00000000	25.88582000
30.29999838	0.00000000	34.65182000
30.49999837	0.00000000	35.05782000
30.69999835	0.00000000	26.95620000
30.89999834	0.00000000	11.71875000
31.09999833	0.00000000	-7.73868000
31.29999832	0.00000000	-26.34719000
31.49999831	0.00000000	-40.30511000
31.69999829	0.00000000	-46.11835000
31.89999828	0.00000000	-41.43085000
32.09999827	0.00000000	-27.00541000
32.29999826	0.00000000	-5.86245000
32.49999825	0.00000000	17.37205000
32.69999824	0.00000000	36.84178000
32.89999822	0.00000000	48.25910000
33.09999821	0.00000000	49.07111000
33.29999820	0.00000000	38.42273000
33.49999819	0.00000000	18.54700000
33.69999818	0.00000000	-6.36687900
33.89999816	0.00000000	-30.06274000
34.09999815	0.00000000	-46.98573000
34.29999814	0.00000000	-53.75246000
34.49999813	0.00000000	-48.20989000
34.69999812	0.00000000	-31.74212000
34.89999810	0.00000000	-8.10162400
35.09999809	0.00000000	16.86762000
35.29999808	0.00000000	37.20472000
35.49999807	0.00000000	49.02190000
35.69999806	0.00000000	49.02190000
35.89999805	0.00000000	37.25394000
36.09999803	0.00000000	17.42126000
36.29999802	0.00000000	-5.86245000
36.49999801	0.00000000	-27.00541000
36.69999800	0.00000000	-41.43085000
36.89999799	0.00000000	-46.06914000
37.09999797	0.00000000	-39.74532000
37.29999796	0.00000000	-24.15108000
37.49999795	0.00000000	-3.51254900
37.69999794	0.00000000	16.71383000
37.89999793	0.00000000	31.13927000
38.09999791	0.00000000	36.69414000
38.29999790	0.00000000	32.96629000
38.49999789	0.00000000	21.14911000
38.69999788	0.00000000	4.73056000
38.89999787	0.00000000	-12.13091000
39.09999786	0.00000000	-24.76624000
39.29999784	0.00000000	-29.90895000
39.49999783	0.00000000	-27.05462000
39.69999782	0.00000000	-17.83341000
39.89999781	0.00000000	-5.19192900
40.09999780	0.00000000	7.44340500
40.29999778	0.00000000	16.71383000
40.49999777	0.00000000	20.17716000
40.69999776	0.00000000	17.73499000
40.89999775	0.00000000	11.00517000
41.09999774	0.00000000	1.72859200
41.29999772	0.00000000	-7.49261800
41.49999771	0.00000000	-13.85950000
41.69999770	0.00000000	-15.95103000
41.89999769	0.00000000	-13.49655000
42.09999768	0.00000000	-7.28961600
42.29999767	0.00000000	-0.60900590
42.49999765	0.00000000	4.53371000
42.69999764	0.00000000	7.54183000
42.89999763	0.00000000	7.94783400
43.09999762	0.00000000	5.90551100
43.29999761	0.00000000	2.18996000
43.49999759	0.00000000	-1.17495100
43.69999758	0.00000000	-3.36491100
43.89999757	0.00000000	-4.63213500
44.09999756	0.00000000	-4.63213500
44.29999755	0.00000000	-3.41412400
44.49999753	0.00000000	-1.77780500
44.69999752	0.00000000	-0.51058070
44.89999751	0.00000000	-0.14763780
45.09999750	0.00000000	-0.91658460
45.29999749	0.00000000	-2.54675200
45.49999748	0.00000000	-3.31569900
45.69999746	0.00000000	-2.95275600
45.89999745	0.00000000	-1.63016700
46.09999744	0.00000000	0.41215550
46.29999743	0.00000000	2.54675200
46.49999742	0.00000000	3.77706700
46.69999740	0.00000000	4.22613100
46.89999739	0.00000000	3.31569900
47.09999738	0.00000000	1.17495100
47.29999737	0.00000000	-2.18996000
47.49999736	0.00000000	-5.90551100
47.69999734	0.00000000	-7.99704600
47.89999733	0.00000000	-8.09547100
48.09999732	0.00000000	-6.82824800
48.29999731	0.00000000	-4.68134800
48.49999730	0.00000000	-1.67938000
48.69999729	0.00000000	1.63016700
48.89999727	0.00000000	4.17691900
49.09999726	0.00000000	5.09350300
49.29999725	0.00000000	5.14271600
49.49999724	0.00000000	4.73056000
49.69999723	0.00000000	3.77706700
49.89999721	0.00000000	2.08538400
50.09999720	0.00000000	-0.81200780
50.29999719	0.00000000	-2.90354300
50.49999718	0.00000000	-3.87549200
50.69999717	0.00000000	-4.68134800
50.89999715	0.00000000	-4.68134800
51.09999714	0.00000000	-3.87549200
51.29999713	0.00000000	-3.00196800
51.49999712	0.00000000	-1.67938000
51.69999711	0.00000000	0.00000000
51.89999710	0.00000000	1.67938000
52.09999708	0.00000000	2.95275600
52.29999707	0.00000000	3.36491100
52.49999706	0.00000000	2.95275600
52.69999705	0.00000000	1.63016700
52.89999704	0.00000000	-0.46136810
53.09999702	0.00000000	-3.00196800
53.29999701	0.00000000	-5.09350300
53.49999700	0.00000000	-6.41609200
53.69999699	0.00000000	-6.77903500
53.89999698	0.00000000	-5.91166300
54.09999696	0.00000000	-3.41412400
54.29999695	0.00000000	-0.46136810
54.49999694	0.00000000	2.09153500
54.69999693	0.00000000	4.22613100
54.89999692	0.00000000	4.99507900
55.09999691	0.00000000	4.22613100
55.29999689	0.00000000	2.09153500
55.49999688	0.00000000	-0.41215550
55.69999687	0.00000000	-3.00196800
55.89999686	0.00000000	-5.09350300
56.09999685	0.00000000	-6.36687900
56.29999683	0.00000000	-6.31766700
56.49999682	0.00000000	-4.63213500
56.69999681	0.00000000	-1.72859200
56.89999680	0.00000000	1.22416300
57.09999679	0.00000000	3.41412400
57.29999677	0.00000000	5.04429100
57.49999676	0.00000000	5.40108300
57.69999675	0.00000000	3.26648600
57.89999674	0.00000000	-0.36294290
58.09999673	0.00000000	-3.76476400
58.29999672	0.00000000	-5.50565900
58.49999670	0.00000000	-6.46530500
58.69999669	0.00000000	-6.68061000
58.89999668	0.00000000	-5.03813900
59.09999667	0.00000000	-1.27952700
59.29999666	0.00000000	2.04232300
59.49999664	0.00000000	4.68134800
59.69999663	0.00000000	6.31766700
59.89999662	0.00000000	6.26845500
60.09999661	0.00000000	4.17691900
60.29999660	0.00000000	0.41215550
60.49999658	0.00000000	-3.36491100
60.69999657	0.00000000	-6.36687900
60.89999656	0.00000000	-8.04626000
61.09999655	0.00000000	-7.99704600
61.29999654	0.00000000	-5.90551100
61.49999653	0.00000000	-2.14074800
61.69999651	0.00000000	1.63016700
61.89999650	0.00000000	4.63213500
62.09999649	-0.17531990	6.31766700
62.29999648	0.00000000	6.36687900
62.49999647	0.00000000	5.09350300
62.69999645	0.00000000	2.95275600
62.89999644	0.00000000	0.00000000
63.09999643	0.00000000	-2.95275600
63.29999642	0.00000000	-5.09350300
63.49999641	0.00000000	-6.36687900
63.69999639	0.00000000	-6.36687900
63.89999638	0.00000000	-5.09350300
64.09999637	0.00000000	-3.05118100
64.29999636	0.00000000	-0.86737200
64.49999635	0.00000000	0.86737200
64.69999634	0.00000000	3.00196800
64.89999632	0.00000000	4.63213500
65.09999631	0.00000000	5.09350300
65.29999630	0.00000000	4.68134800
65.49999629	0.00000000	3.36491100
65.69999628	0.00000000	1.27337600
65.89999626	0.00000000	-1.32258800
66.09999625	0.00000000	-3.87549200
66.29999624	0.00000000	-6.36687900
66.49999623	0.00000000	-7.64025500
66.69999622	0.00000000	-7.24040300
66.89999620	0.00000000	-5.96087600
67.09999619	0.00000000	-3.36491100
67.29999618	0.00000000	0.00000000
67.49999617	0.00000000	3.41412400
67.69999616	0.00000000	6.31766700
67.89999615	0.00000000	7.59104300
68.09999613	0.00000000	6.77903500
68.29999612	0.00000000	4.68134800
68.49999611	0.00000000	1.63016700
68.69999610	0.00000000	-2.18996000
68.89999609	0.00000000	-6.41609200
69.09999607	0.00000000	-9.73179100
69.29999606	0.00000000	-11.05438000
69.49999605	0.00000000	-10.19316000
69.69999604	0.00000000	-7.68946800
69.89999603	0.00000000	-3.77706700
70.09999601	0.00000000	0.81815940
70.29999600	0.00000000	5.45029500
70.49999599	0.00000000	7.99704600
70.69999598	0.00000000	8.50762700
70.89999597	0.00000000	7.59104300
71.09999596	0.00000000	4.63213500
71.29999594	0.00000000	0.46136810
71.49999593	0.00000000	-3.41412400
71.69999592	0.00000000	-6.82824800
71.89999591	0.00000000	-9.32578700
72.09999590	0.00000000	-9.68257800
72.29999588	0.00000000	-7.68946800
72.49999587	0.00000000	-4.28149600
72.69999586	0.00000000	-0.91043300
72.89999585	0.00000000	2.59596400
73.09999584	0.00000000	5.50565900
73.29999582	0.00000000	7.54183000
73.49999581	0.00000000	7.12967500
73.69999580	0.00000000	4.23228400
73.89999579	0.00000000	0.86122040
74.09999578	0.00000000	-3.00196800
74.29999577	0.00000000	-6.31766700
74.49999575	0.00000000	-8.04626000
74.69999574	0.00000000	-8.04626000
74.89999573	0.00000000	-6.36687900
75.09999572	0.00000000	-3.36491100
75.29999571	0.00000000	0.41215550
75.49999569	0.00000000	4.17691900
75.69999568	0.00000000	6.26845500
75.89999567	0.00000000	6.31766700
76.09999566	0.00000000	4.63213500
76.29999565	0.00000000	1.63016700
76.49999563	0.00000000	-2.18996000
76.69999562	0.00000000	-6.36687900
76.89999561	0.00000000	-9.27657400
77.09999560	0.00000000	-9.73179100
77.29999559	0.00000000	-8.04626000
77.49999558	0.00000000	-4.63213500
77.69999556	0.00000000	0.04921259
77.89999555	0.00000000	5.04429100
78.09999554	0.00000000	8.86441900
78.29999553	0.00000000	10.09473000
78.49999552	0.00000000	8.86441900
78.69999550	0.00000000	5.04429100
78.89999549	0.00000000	0.00000000
79.09999548	0.00000000	-5.14271600
79.29999547	0.00000000	-9.73179100
79.49999546	0.00000000	-12.27854000
79.69999544	0.00000000	-11.87254000
79.89999543	0.00000000	-9.31963500
80.09999542	0.00000000	-4.58907500
80.29999541	0.00000000	1.67938000
80.49999540	0.00000000	7.59104300
80.69999539	0.00000000	11.41117000
80.89999537	0.00000000	12.68455000
81.09999536	0.00000000	11.00517000
81.29999535	0.00000000	6.77903500
81.49999534	0.00000000	1.22416300
81.69999533	0.00000000	-5.09350300
81.89999531	0.00000000	-10.54380000
82.09999530	0.00000000	-13.14591000
82.29999529	0.00000000	-13.19513000
82.49999528	0.00000000	-11.05438000
82.69999527	0.00000000	-6.77903500
82.89999525	0.00000000	-1.32258800
83.09999524	0.00000000	4.22613100
83.29999523	0.00000000	8.45841400
83.49999522	0.00000000	11.05438000
83.69999521	0.00000000	11.41117000
83.89999520	0.00000000	9.31963500
84.09999518	0.00000000	5.09350300
84.29999517	0.00000000	0.00000000
84.49999516	0.00000000	-5.14271600
84.69999515	0.00000000	-9.78100300
84.89999514	0.00000000	-12.73991000
85.09999512	0.00000000	-13.14591000
85.29999511	0.00000000	-11.05438000
85.49999510	0.00000000	-6.82824800
85.69999509	0.00000000	-1.72859200
85.89999508	0.00000000	3.41412400
86.09999506	0.00000000	8.04626000
86.29999505	0.00000000	11.00517000
86.49999504	0.00000000	11.46038000
86.69999503	0.00000000	9.78100300
86.89999502	0.00000000	6.31766700
87.09999501	0.00000000	1.27337600
87.29999499	0.00000000	-4.22613100
87.49999498	0.00000000	-8.45841400
87.69999497	0.00000000	-11.10359000
87.89999496	0.00000000	-11.87254000
88.09999495	0.00000000	-10.59301000
88.29999493	0.00000000	-6.77903500
88.49999492	0.00000000	-1.77780500
88.69999491	0.00000000	2.95275600
88.89999490	0.00000000	6.77903500
89.09999489	0.00000000	9.32578700
89.29999487	0.00000000	9.73179100
89.49999486	0.00000000	8.09547100
89.69999485	0.00000000	5.09350300
89.89999484	0.00000000	1.21801200
90.09999483	0.00000000	-3.41412400
90.29999482	0.00000000	-7.59104300
90.49999480	0.00000000	-9.68257800
90.69999479	0.00000000	-9.32578700
90.89999478	0.00000000	-6.87746000
91.09999477	0.00000000	-3.87549200
91.29999476	0.00000000	-0.86122040
91.49999474	0.00000000	2.54675200
91.69999473	0.00000000	4.99507900
91.89999472	0.00000000	5.90551100
92.09999471	0.00000000	5.09350300
92.29999470	0.00000000	3.41412400
92.49999468	0.00000000	1.27337600
92.69999467	0.00000000	-1.27337600
92.89999466	0.00000000	-3.36491100
93.09999465	0.00000000	-4.63213500
93.29999464	0.00000000	-4.68134800
93.49999463	0.00000000	-3.87549200
93.69999461	0.00000000	-3.00196800
93.89999460	0.00000000	-1.67938000
94.09999459	0.00000000	-0.04921259
94.29999458	0.00000000	1.21801200
94.49999457	0.00000000	1.67938000
94.69999455	0.00000000	1.72859200
94.89999454	0.00000000	1.72859200
95.09999453	0.00000000	1.72859200
95.29999452	0.00000000	1.72859200
95.49999451	0.00000000	1.72859200
95.69999449	0.00000000	1.67938000
95.89999448	0.00000000	1.26722400
96.09999447	0.00000000	0.41215550
96.29999446	0.00000000	-0.41215550
96.49999445	0.00000000	-1.31643700
96.69999444	0.00000000	-2.14074800
96.89999442	0.00000000	-2.95275600
97.09999441	0.00000000	-2.95275600
97.29999440	0.00000000	-2.14074800
97.49999439	0.00000000	-1.31643700
97.69999438	0.00000000	-0.41215550
97.89999436	0.00000000	0.36294290
98.09999435	0.00000000	0.86122040
98.29999434	0.00000000	0.81815940
98.49999433	0.00000000	0.81200780
98.69999432	0.00000000	-0.04921259
98.89999430	0.00000000	-1.26722400
99.09999429	0.00000000	-2.14074800
99.29999428	0.00000000	-3.00196800
99.49999427	0.00000000	-3.41412400
99.69999426	0.00000000	-3.41412400
99.89999425	0.00000000	-2.95275600
100.09999423	0.00000000	-1.67938000
100.29999422	0.00000000	-0.04921259
100.49999421	0.00000000	1.21801200
100.69999420	0.00000000	1.67938000
100.89999419	0.00000000	1.67938000
101.09999417	0.00000000	1.26722400
101.29999416	0.00000000	0.41215550
101.49999415	0.00000000	-0.46136810
101.69999414	0.00000000	-1.72859200
101.89999413	0.00000000	-2.95275600
102.09999411	0.00000000	-3.41412400
102.29999410	0.00000000	-3.41412400
102.49999409	0.00000000	-2.95275600
102.69999408	0.00000000	-1.72859200
102.89999407	0.00000000	-0.46136810
103.09999406	0.00000000	0.41215550
103.29999404	0.00000000	1.31643700
103.49999403	0.00000000	2.09153500
103.69999402	0.00000000	2.49138800
103.89999401	0.00000000	1.67938000
104.09999400	0.00000000	0.46136810
104.29999398	0.00000000	-0.46136810
104.49999397	0.00000000	-1.72859200
104.69999396	0.00000000	-2.95275600
104.89999395	0.00000000	-3.36491100
105.09999394	0.00000000	-2.95275600
105.29999392	0.00000000	-1.67938000
105.49999391	0.00000000	-0.04921259
105.69999390	0.00000000	1.21801200
105.89999389	0.00000000	1.67938000
106.09999388	0.00000000	1.72859200
106.29999387	0.00000000	1.67938000
106.49999385	0.00000000	1.21801200
106.69999384	0.00000000	0.00000000
106.89999383	0.00000000	-1.26722400
107.09999382	0.00000000	-2.14074800
107.29999381	0.00000000	-2.95275600
107.49999379	0.00000000	-2.95275600
107.69999378	0.00000000	-2.14074800
107.89999377	0.00000000	-1.31643700
108.09999376	0.00000000	-0.41215550
108.29999375	0.00000000	0.46136810
108.49999374	0.00000000	1.67938000
108.69999372	0.00000000	2.49138800
108.89999371	0.00000000	2.09153500
109.09999370	0.00000000	1.31643700
109.29999369	0.00000000	0.41215550
109.49999368	0.00000000	-0.46136810
109.69999366	0.00000000	-1.72859200
