Time	Channel A	Channel B
(us)	(V)	(mV)

-4.49999956	0.00000000	-3.46333600
-4.29999957	0.00000000	-3.46333600
-4.09999958	0.00000000	-3.46333600
-3.89999959	0.00000000	-3.46333600
-3.69999960	0.00000000	-3.46333600
-3.49999962	0.00000000	-3.46333600
-3.29999963	0.00000000	-3.51254900
-3.09999964	0.00000000	-3.87549200
-2.89999965	0.00000000	-4.27534400
-2.69999966	0.00000000	-3.87549200
-2.49999968	0.00000000	-3.51254900
-2.29999969	0.00000000	-3.46333600
-2.09999970	0.00000000	-3.46333600
-1.89999971	0.00000000	-3.46333600
-1.69999972	0.00000000	-3.46333600
-1.49999973	0.00000000	-3.46333600
-1.29999975	0.00000000	-3.46333600
-1.09999976	0.00000000	-3.46333600
-0.89999977	0.00000000	-3.46333600
-0.69999978	0.00000000	-3.46333600
-0.49999979	0.00000000	-3.46333600
-0.29999981	0.35125490	-3.46333600
-0.09999982	0.70250980	-3.46333600
0.10000017	1.05376500	-3.46333600
0.30000016	1.05376500	-3.46333600
0.50000015	0.87844490	-3.46333600
0.70000013	0.17531990	-3.46333600
0.90000012	-0.70250980	-3.46333600
1.10000011	-1.75689000	-3.46333600
1.30000010	-2.45940000	-3.46333600
1.50000009	-2.81127000	-3.46333600
1.70000008	-2.28408000	-3.41412400
1.90000006	-1.05376500	-3.00196800
2.10000005	0.87844490	-2.28838600
2.30000004	2.98659000	-2.64517700
2.50000003	4.74409400	-3.86318900
2.70000002	5.27128500	-4.28149600
2.90000000	4.74409400	-4.77977300
3.09999999	2.45940000	-5.14271600
3.29999998	-0.70250980	-5.19192900
3.49999997	-4.04096900	-5.14271600
3.69999996	-6.67691900	-4.68134800
3.89999994	-8.08255400	-3.46333600
4.09999993	-7.20410900	-2.23917300
4.29999992	-4.39283900	-1.77780500
4.49999991	-0.35125490	-1.77780500
4.69999990	4.04096900	-2.18996000
4.89999989	7.55536400	-3.05118100
5.09999987	9.31225400	-3.87549200
5.29999986	8.78567900	-4.73056000
5.49999985	5.97379400	-5.19192900
5.69999984	1.58095500	-5.60408400
5.89999983	-3.16252500	-5.95472400
6.09999981	-7.20410900	-5.14271600
6.29999980	-9.31225400	-3.92470400
6.49999979	-9.13693400	-3.05118100
6.69999978	-6.67691900	-2.18996000
6.89999977	-2.63533500	-1.82701800
7.09999975	1.75689000	-2.18996000
7.29999974	5.44660400	-3.10039400
7.49999973	7.37942900	-4.28149600
7.69999972	7.55536400	-5.54872000
7.89999971	5.62254000	-5.55487200
8.09999970	2.63533500	-5.24114100
8.29999968	-0.52657480	-5.14271600
8.49999967	-3.33846000	-4.73056000
8.69999966	-4.91941500	-3.92470400
8.89999965	-5.09534900	-3.51254900
9.09999964	-4.04096900	-3.46333600
9.29999962	-2.10814500	-3.46333600
9.49999961	-0.17531990	-3.46333600
9.69999960	1.40563500	-3.46333600
9.89999959	2.28408000	-3.46333600
10.09999958	2.45940000	-3.46333600
10.29999956	1.93282500	-3.46333600
10.49999955	1.05376500	-3.46333600
10.69999954	0.17531990	-3.51254900
10.89999953	-0.52657480	-3.87549200
11.09999952	-0.87844490	-4.27534400
11.29999951	-0.87844490	-3.87549200
11.49999949	-0.87844490	-3.51254900
11.69999948	-0.52657480	-3.46333600
11.89999947	-0.17531990	-3.46333600
12.09999946	0.00000000	-3.46333600
12.29999945	0.00000000	-3.46333600
12.49999943	-0.17531990	-3.46333600
12.69999942	0.00000000	-3.46333600
12.89999941	-0.17531990	-3.46333600
13.09999940	-0.17531990	-3.46333600
13.29999939	-0.17531990	-3.46333600
13.49999937	0.00000000	-3.46333600
13.69999936	0.00000000	-3.46333600
13.89999935	0.00000000	-3.46333600
14.09999934	0.00000000	-3.46333600
14.29999933	0.00000000	-3.46333600
14.49999932	0.00000000	-3.46333600
14.69999930	0.00000000	-3.46333600
14.89999929	0.00000000	-3.46333600
15.09999928	0.00000000	-3.46333600
15.29999927	0.00000000	-3.46333600
15.49999926	0.00000000	-3.46333600
15.69999924	0.00000000	-3.46333600
15.89999923	0.00000000	-3.46333600
16.09999922	0.00000000	-3.46333600
16.29999921	0.00000000	-3.46333600
16.49999920	0.00000000	-3.46333600
16.69999919	0.00000000	-3.46333600
16.89999917	0.00000000	-3.46333600
17.09999916	0.00000000	-3.46333600
17.29999915	0.00000000	-3.46333600
17.49999914	0.00000000	-3.46333600
17.69999913	0.00000000	-3.46333600
17.89999911	0.00000000	-3.46333600
18.09999910	0.00000000	-3.46333600
18.29999909	0.00000000	-3.46333600
18.49999908	0.00000000	-3.46333600
18.69999907	0.00000000	-3.46333600
18.89999905	0.00000000	-3.46333600
19.09999904	0.00000000	-3.51254900
19.29999903	0.00000000	-3.87549200
19.49999902	0.00000000	-4.27534400
19.69999901	0.00000000	-3.87549200
19.89999900	0.00000000	-3.51254900
20.09999898	0.00000000	-3.46333600
20.29999897	0.00000000	-3.46333600
20.49999896	0.00000000	-3.46333600
20.69999895	0.00000000	-3.51254900
20.89999894	0.00000000	-3.87549200
21.09999892	0.00000000	-4.27534400
21.29999891	0.00000000	-3.87549200
21.49999890	0.00000000	-3.51254900
21.69999889	0.00000000	-3.46333600
21.89999888	0.00000000	-3.46333600
22.09999886	0.00000000	-3.46333600
22.29999885	0.00000000	-3.46333600
22.49999884	0.00000000	-3.46333600
22.69999883	0.00000000	-3.46333600
22.89999882	0.00000000	-3.51254900
23.09999881	0.00000000	-3.92470400
23.29999879	0.00000000	-4.73056000
23.49999878	0.00000000	-5.14271600
23.69999877	0.00000000	-5.19192900
23.89999876	0.00000000	-5.14271600
24.09999875	0.00000000	-4.73056000
24.29999873	0.00000000	-3.87549200
24.49999872	0.00000000	-3.00196800
24.69999871	0.00000000	-1.72859200
24.89999870	0.00000000	-0.51058070
25.09999869	0.00000000	-0.09842519
25.29999867	0.00000000	-0.51058070
25.49999866	0.00000000	-1.77780500
25.69999865	0.00000000	-3.51254900
25.89999864	0.00000000	-5.70251000
26.09999863	0.00000000	-8.60605200
26.29999862	0.00000000	-11.10359000
26.49999860	0.00000000	-11.92175000
26.69999859	0.00000000	-11.05438000
26.89999858	0.00000000	-8.04626000
27.09999857	0.00000000	-3.36491100
27.29999856	0.00000000	2.18996000
27.49999854	0.00000000	8.04626000
27.69999853	0.00000000	12.22933000
27.89999852	0.00000000	12.99828000
28.09999851	0.00000000	9.98400600
28.29999850	0.00000000	2.75590500
28.49999848	0.00000000	-6.92667200
28.69999847	0.00000000	-16.70768000
28.89999846	0.00000000	-24.76009000
29.09999845	0.00000000	-29.29995000
29.29999844	0.00000000	-28.32800000
29.49999843	0.00000000	-20.68774000
29.69999841	0.00000000	-7.99704600
29.89999840	0.00000000	6.82824800
30.09999839	0.00000000	20.78617000
30.29999838	0.00000000	30.46875000
30.49999837	0.00000000	33.42150000
30.69999835	0.00000000	28.54330000
30.89999834	0.00000000	15.33587000
31.09999833	0.00000000	-4.83513700
31.29999832	0.00000000	-25.42446000
31.49999831	0.00000000	-40.71727000
31.69999829	0.00000000	-47.94537000
31.89999828	0.00000000	-45.30019000
32.09999827	0.00000000	-33.01550000
32.29999826	0.00000000	-13.09670000
32.49999825	0.00000000	9.73179100
32.69999824	0.00000000	30.41954000
32.89999822	0.00000000	43.92224000
33.09999821	0.00000000	46.42593000
33.29999820	0.00000000	37.55536000
33.49999819	0.00000000	18.90994000
33.69999818	0.00000000	-5.19192900
33.89999816	0.00000000	-29.29995000
34.09999815	0.00000000	-47.89616000
34.29999814	0.00000000	-56.40993000
34.49999813	0.00000000	-53.45718000
34.69999812	0.00000000	-39.79454000
34.89999810	0.00000000	-17.42126000
35.09999809	0.00000000	8.30462600
35.29999808	0.00000000	30.32111000
35.49999807	0.00000000	44.33440000
35.69999806	0.00000000	47.23794000
35.89999805	0.00000000	37.96751000
36.09999803	0.00000000	19.05758000
36.29999802	0.00000000	-4.22613100
36.49999801	0.00000000	-26.24877000
36.69999800	0.00000000	-42.75344000
36.89999799	0.00000000	-49.48326000
37.09999797	0.00000000	-44.89419000
37.29999796	0.00000000	-30.56717000
37.49999795	0.00000000	-10.39001000
37.69999794	0.00000000	9.88558000
37.89999793	0.00000000	25.17839000
38.09999791	0.00000000	32.86786000
38.29999790	0.00000000	31.59449000
38.49999789	0.00000000	21.91191000
38.69999788	0.00000000	6.31766700
38.89999787	0.00000000	-10.90674000
39.09999786	0.00000000	-24.81545000
39.29999784	0.00000000	-31.64370000
39.49999783	0.00000000	-30.51796000
39.69999782	0.00000000	-22.97613000
39.89999781	0.00000000	-11.56496000
40.09999780	0.00000000	1.07652500
40.29999778	0.00000000	11.57111000
40.49999777	0.00000000	16.66462000
40.69999776	0.00000000	15.49582000
40.89999775	0.00000000	9.22736200
41.09999774	0.00000000	0.00000000
41.29999772	0.00000000	-9.22736200
41.49999771	0.00000000	-15.59424000
41.69999770	0.00000000	-17.78420000
41.89999769	0.00000000	-16.14788000
42.09999768	0.00000000	-11.50960000
42.29999767	0.00000000	-5.24114100
42.49999765	0.00000000	0.66437010
42.69999764	0.00000000	4.48449800
42.89999763	0.00000000	5.80708600
43.09999762	0.00000000	4.53371000
43.29999761	0.00000000	1.21801200
43.49999759	0.00000000	-2.95275600
43.69999758	0.00000000	-6.26845500
43.89999757	0.00000000	-7.64025500
44.09999756	0.00000000	-7.28961600
44.29999755	0.00000000	-6.46530500
44.49999753	0.00000000	-5.19192900
44.69999752	0.00000000	-3.97391700
44.89999751	0.00000000	-3.56176100
45.09999750	0.00000000	-3.92470400
45.29999749	0.00000000	-4.77977300
45.49999748	0.00000000	-5.55487200
45.69999746	0.00000000	-5.90551100
45.89999745	0.00000000	-4.63213500
46.09999744	0.00000000	-2.18996000
46.29999743	0.00000000	-0.09842519
46.49999742	0.00000000	1.21801200
46.69999740	0.00000000	1.58095500
46.89999739	0.00000000	0.71358260
47.09999738	0.00000000	-1.82701800
47.29999737	0.00000000	-5.14271600
47.49999736	0.00000000	-8.14468500
47.69999734	0.00000000	-10.24237000
47.89999733	0.00000000	-11.10359000
48.09999732	0.00000000	-10.24237000
48.29999731	0.00000000	-8.14468500
48.49999730	0.00000000	-5.14271600
48.69999729	0.00000000	-1.82701800
48.89999727	0.00000000	0.76279520
49.09999726	0.00000000	2.04232300
49.29999725	0.00000000	2.49138800
49.49999724	0.00000000	1.58095500
49.69999723	0.00000000	-0.46136810
49.89999721	0.00000000	-3.00196800
50.09999720	0.00000000	-5.14271600
50.29999719	0.00000000	-6.87746000
50.49999718	0.00000000	-8.14468500
50.69999717	0.00000000	-8.55684000
50.89999715	0.00000000	-8.14468500
51.09999714	0.00000000	-6.92667200
51.29999713	0.00000000	-5.65329700
51.49999712	0.00000000	-4.68134800
51.69999711	0.00000000	-2.95275600
51.89999710	0.00000000	-0.51058070
52.09999708	0.00000000	1.16879900
52.29999707	0.00000000	1.63016700
52.49999706	0.00000000	1.21801200
52.69999705	0.00000000	-0.09842519
52.89999704	0.00000000	-2.18996000
53.09999702	0.00000000	-4.73056000
53.29999701	0.00000000	-6.87746000
53.49999700	0.00000000	-8.55684000
53.69999699	0.00000000	-9.36884800
53.89999698	0.00000000	-8.50762700
54.09999696	0.00000000	-6.46530500
54.29999695	0.00000000	-3.82627900
54.49999694	0.00000000	-0.91043300
54.69999693	0.00000000	1.98695800
54.89999692	0.00000000	2.85433100
55.09999691	0.00000000	2.09153500
55.29999689	0.00000000	0.76279520
55.49999688	0.00000000	-1.82701800
55.69999687	0.00000000	-5.14271600
55.89999686	0.00000000	-8.04626000
56.09999685	0.00000000	-9.36884800
56.29999683	0.00000000	-8.96899500
56.49999682	0.00000000	-7.68946800
56.69999681	0.00000000	-5.14271600
56.89999680	0.00000000	-2.18996000
57.09999679	0.00000000	0.31373030
57.29999677	0.00000000	1.98695800
57.49999676	0.00000000	1.58095500
57.69999675	0.00000000	-0.04921259
57.89999674	0.00000000	-2.23917300
58.09999673	0.00000000	-5.19192900
58.29999672	0.00000000	-8.09547100
58.49999670	0.00000000	-9.73179100
58.69999669	0.00000000	-9.37500000
58.89999668	0.00000000	-7.24040300
59.09999667	0.00000000	-4.27534400
59.29999666	0.00000000	-0.51058070
59.49999664	0.00000000	2.39911400
59.69999663	0.00000000	3.31569900
59.89999662	0.00000000	2.90354300
60.09999661	0.00000000	1.17495100
60.29999660	0.00000000	-1.77780500
60.49999658	0.00000000	-5.19192900
60.69999657	0.00000000	-8.55684000
60.89999656	0.00000000	-11.00517000
61.09999655	0.00000000	-11.00517000
61.29999654	0.00000000	-8.55684000
61.49999653	0.00000000	-5.19192900
61.69999651	0.00000000	-1.77780500
61.89999650	0.00000000	1.17495100
62.09999649	0.00000000	2.90354300
62.29999648	0.00000000	3.31569900
62.49999647	0.00000000	2.44832700
62.69999645	0.00000000	-0.09842519
62.89999644	0.00000000	-3.36491100
63.09999643	0.00000000	-6.01008800
63.29999642	0.00000000	-7.69562000
63.49999641	0.00000000	-9.01205700
63.69999639	0.00000000	-8.96899500
63.89999638	0.00000000	-8.14468500
64.09999637	0.00000000	-6.41609200
64.29999636	0.00000000	-3.92470400
64.49999635	0.00000000	-1.77780500
64.69999634	0.00000000	-0.04921259
64.89999632	0.00000000	1.21801200
65.09999631	0.00000000	1.63016700
65.29999630	0.00000000	1.26722400
65.49999629	0.00000000	0.36294290
65.69999628	0.00000000	-0.91658460
65.89999626	0.00000000	-3.10039400
66.09999625	0.00000000	-5.60408400
66.29999624	0.00000000	-8.19389700
66.49999623	0.00000000	-10.24237000
66.69999622	0.00000000	-11.05438000
66.89999620	0.00000000	-9.83021600
67.09999619	0.00000000	-7.28961600
67.29999618	0.00000000	-4.27534400
67.49999617	0.00000000	-0.46136810
67.69999616	0.00000000	2.85433100
67.89999615	0.00000000	4.58292300
68.09999613	0.00000000	4.63213500
68.29999612	0.00000000	3.31569900
68.49999611	0.00000000	0.76279520
68.69999610	0.00000000	-3.05118100
68.89999609	0.00000000	-6.87746000
69.09999607	0.00000000	-10.24237000
69.29999606	0.00000000	-12.32775000
69.49999605	0.00000000	-11.92175000
69.69999604	0.00000000	-9.83021600
69.89999603	0.00000000	-6.41609200
70.09999601	0.00000000	-2.18996000
70.29999600	0.00000000	1.63016700
70.49999599	0.00000000	4.63213500
70.69999598	0.00000000	6.26845500
70.89999597	0.00000000	5.81323800
71.09999596	0.00000000	2.90354300
71.29999594	0.00000000	-1.26722400
71.49999593	0.00000000	-5.09350300
71.69999592	0.00000000	-8.14468500
71.89999591	0.00000000	-10.24237000
72.09999590	0.00000000	-11.10359000
72.29999588	0.00000000	-10.19316000
72.49999587	0.00000000	-7.68946800
72.69999586	0.00000000	-3.87549200
72.89999585	0.00000000	-0.09842519
73.09999584	0.00000000	2.85433100
73.29999582	0.00000000	4.17691900
73.49999581	0.00000000	3.72785400
73.69999580	0.00000000	2.08538400
73.89999579	0.00000000	-0.95964560
74.09999578	0.00000000	-4.28149600
74.29999577	0.00000000	-7.73868000
74.49999575	0.00000000	-10.19316000
74.69999574	0.00000000	-11.05438000
74.89999573	0.00000000	-9.78100300
75.09999572	0.00000000	-6.87746000
75.29999571	0.00000000	-3.46333600
75.49999569	0.00000000	-0.04921259
75.69999568	0.00000000	2.85433100
75.89999567	0.00000000	4.12770700
76.09999566	0.00000000	3.26648600
76.29999565	0.00000000	0.71358260
76.49999563	0.00000000	-3.46333600
76.69999562	0.00000000	-7.64025500
76.89999561	0.00000000	-10.24237000
77.09999560	0.00000000	-11.50960000
77.29999559	0.00000000	-11.00517000
77.49999558	0.00000000	-8.04626000
77.69999556	0.00000000	-3.46333600
77.89999555	0.00000000	1.26722400
78.09999554	0.00000000	5.45644600
78.29999553	0.00000000	8.35383800
78.49999552	0.00000000	7.89862200
78.69999550	0.00000000	4.63213500
78.89999549	0.00000000	-0.09842519
79.09999548	0.00000000	-5.55487200
79.29999547	0.00000000	-10.64222000
79.49999546	0.00000000	-13.65650000
79.69999544	0.00000000	-14.87451000
79.89999543	0.00000000	-13.49655000
80.09999542	0.00000000	-8.50762700
80.29999541	0.00000000	-2.28838600
80.49999540	0.00000000	2.90354300
80.69999539	0.00000000	6.72982200
80.89999537	0.00000000	8.81520600
81.09999536	0.00000000	7.94783400
81.29999535	0.00000000	4.58292300
81.49999534	0.00000000	-0.55979330
81.69999533	0.00000000	-6.87746000
81.89999531	0.00000000	-12.73991000
82.09999530	0.00000000	-16.10482000
82.29999529	0.00000000	-16.25246000
82.49999528	0.00000000	-14.11786000
82.69999527	0.00000000	-10.69144000
82.89999525	0.00000000	-5.50565900
83.09999524	0.00000000	0.31373030
83.29999523	0.00000000	5.49950700
83.49999522	0.00000000	8.82135800
83.69999521	0.00000000	10.08243000
83.89999520	0.00000000	7.94783400
84.09999518	0.00000000	3.41412400
84.29999517	0.00000000	-1.72859200
84.49999516	0.00000000	-6.87746000
84.69999515	0.00000000	-11.50960000
84.89999514	0.00000000	-14.51772000
85.09999512	0.00000000	-15.38509000
85.29999511	0.00000000	-14.46850000
85.49999510	0.00000000	-11.05438000
85.69999509	0.00000000	-5.60408400
85.89999508	0.00000000	-0.09842519
86.09999506	0.00000000	4.63213500
86.29999505	0.00000000	7.99704600
86.49999504	0.00000000	9.27042300
86.69999503	0.00000000	7.99704600
86.89999502	0.00000000	4.63213500
87.09999501	0.00000000	-0.09842519
87.29999499	0.00000000	-5.60408400
87.49999498	0.00000000	-11.05438000
87.69999497	0.00000000	-14.46850000
87.89999496	0.00000000	-15.38509000
88.09999495	0.00000000	-14.46850000
88.29999493	0.00000000	-11.05438000
88.49999492	0.00000000	-5.60408400
88.69999491	0.00000000	-0.09842519
88.89999490	0.00000000	4.58292300
89.09999489	0.00000000	7.54183000
89.29999487	0.00000000	7.99704600
89.49999486	0.00000000	6.31766700
89.69999485	0.00000000	2.90354300
89.89999484	0.00000000	-1.72859200
90.09999483	0.00000000	-6.36687900
90.29999482	0.00000000	-9.78100300
90.49999480	0.00000000	-11.50960000
90.69999479	0.00000000	-11.50960000
90.89999478	0.00000000	-9.83021600
91.09999477	0.00000000	-6.87746000
91.29999476	0.00000000	-3.46333600
91.49999474	0.00000000	-0.04921259
91.69999473	0.00000000	2.85433100
91.89999472	0.00000000	4.12770700
92.09999471	0.00000000	3.36491100
92.29999470	0.00000000	1.67938000
92.49999468	0.00000000	-0.46136810
92.69999467	0.00000000	-3.00196800
92.89999466	0.00000000	-5.09350300
93.09999465	0.00000000	-6.41609200
93.29999464	0.00000000	-6.82824800
93.49999463	0.00000000	-6.46530500
93.69999461	0.00000000	-5.60408400
93.89999460	0.00000000	-4.77977300
94.09999459	0.00000000	-3.87549200
94.29999458	0.00000000	-3.05118100
94.49999457	0.00000000	-2.18996000
94.69999455	0.00000000	-1.77780500
94.89999454	0.00000000	-1.67938000
95.09999453	0.00000000	-1.31643700
95.29999452	0.00000000	-0.91658460
95.49999451	0.00000000	-1.36565000
95.69999449	0.00000000	-2.18996000
95.89999448	0.00000000	-3.46333600
96.09999447	0.00000000	-4.68134800
96.29999446	0.00000000	-5.14271600
96.49999445	0.00000000	-5.19192900
96.69999444	0.00000000	-5.19192900
96.89999442	0.00000000	-5.14271600
97.09999441	0.00000000	-4.73056000
97.29999440	0.00000000	-3.87549200
97.49999439	0.00000000	-3.05118100
97.69999438	0.00000000	-2.18996000
97.89999436	0.00000000	-1.72859200
98.09999435	0.00000000	-1.31643700
98.29999434	0.00000000	-0.91658460
98.49999433	0.00000000	-1.36565000
98.69999432	0.00000000	-2.18996000
98.89999430	0.00000000	-3.46333600
99.09999429	0.00000000	-4.68134800
99.29999428	0.00000000	-5.14271600
99.49999427	0.00000000	-5.19192900
99.69999426	0.00000000	-5.09350300
99.89999425	0.00000000	-4.32455700
100.09999423	0.00000000	-3.05733300
100.29999422	0.00000000	-2.58981300
100.49999421	0.00000000	-1.67938000
100.69999420	0.00000000	-0.51058070
100.89999419	0.00000000	-0.09842519
101.09999417	0.00000000	-0.51058070
101.29999416	0.00000000	-1.72859200
101.49999415	0.00000000	-3.00196800
101.69999414	0.00000000	-3.87549200
101.89999413	0.00000000	-4.73056000
102.09999411	0.00000000	-5.14271600
102.29999410	0.00000000	-5.19192900
102.49999409	0.00000000	-5.14271600
102.69999408	0.00000000	-4.68134800
102.89999407	0.00000000	-3.41412400
103.09999406	0.00000000	-1.77780500
103.29999404	0.00000000	-0.51058070
103.49999403	0.00000000	-0.04921259
103.69999402	0.00000000	0.00000000
103.89999401	0.00000000	-0.09842519
104.09999400	0.00000000	-0.91658460
104.29999398	0.00000000	-2.59596400
104.49999397	0.00000000	-3.82627900
104.69999396	0.00000000	-4.73056000
104.89999395	0.00000000	-5.09350300
105.09999394	0.00000000	-4.73056000
105.29999392	0.00000000	-3.87549200
105.49999391	0.00000000	-3.05118100
105.69999390	0.00000000	-2.14074800
105.89999389	0.00000000	-1.31643700
106.09999388	0.00000000	-0.51058070
106.29999387	0.00000000	-0.55979330
106.49999385	0.00000000	-1.72859200
106.69999384	0.00000000	-3.00196800
106.89999383	0.00000000	-3.87549200
107.09999382	0.00000000	-4.73056000
107.29999381	0.00000000	-5.14271600
107.49999379	0.00000000	-5.19192900
107.69999378	0.00000000	-5.14271600
107.89999377	0.00000000	-4.68134800
108.09999376	0.00000000	-3.46333600
108.29999375	0.00000000	-2.18996000
108.49999374	0.00000000	-1.31643700
108.69999372	0.00000000	-0.46136810
108.89999371	0.00000000	-0.09842519
109.09999370	0.00000000	-0.51058070
