Time	Channel A	Channel B
(us)	(V)	(mV)

-4.59999956	0.00000000	-34.63336000
-4.39999957	0.00000000	-34.63336000
-4.19999958	0.00000000	-34.63336000
-3.99999959	0.00000000	-34.63336000
-3.79999960	0.00000000	-34.63336000
-3.59999962	0.00000000	-34.63336000
-3.39999963	0.00000000	-34.63336000
-3.19999964	0.00000000	-34.63336000
-2.99999965	0.00000000	-34.63336000
-2.79999966	0.00000000	-34.63336000
-2.59999968	0.00000000	-34.63336000
-2.39999969	0.00000000	-34.63336000
-2.19999970	0.00000000	-34.63336000
-1.99999971	0.00000000	-34.63336000
-1.79999972	0.00000000	-34.63336000
-1.59999973	0.00000000	-34.63336000
-1.39999975	0.00000000	-34.63336000
-1.19999976	0.00000000	-34.63336000
-0.99999977	0.00000000	-34.63336000
-0.79999978	0.00000000	-34.58415000
-0.59999979	0.00000000	-34.22121000
-0.39999981	0.35125490	-33.82136000
-0.19999982	0.70250980	-34.22121000
0.00000017	0.87844490	-34.58415000
0.20000016	1.05376500	-34.63336000
0.40000015	0.87844490	-34.63336000
0.60000013	0.35125490	-34.63336000
0.80000012	-0.52657480	-34.63336000
1.00000011	-1.58095500	-34.63336000
1.20000010	-2.45940000	-34.63336000
1.40000009	-2.81127000	-34.63336000
1.60000008	-2.45940000	-34.63336000
1.80000006	-1.22970000	-34.63336000
2.00000005	0.70250980	-34.63336000
2.20000004	2.81127000	-34.63336000
2.40000003	4.56816000	-34.63336000
2.60000002	5.27128500	-34.63336000
2.80000000	4.74409400	-34.68258000
2.99999999	2.81127000	-35.04552000
3.19999998	-0.35125490	-35.44537000
3.39999997	-3.68971500	-35.04552000
3.59999996	-6.67691900	-34.68258000
3.79999994	-8.08255400	-34.63336000
3.99999993	-7.37942900	-34.63336000
4.19999992	-4.74409400	-34.63336000
4.39999991	-0.70250980	-34.63336000
4.59999990	3.68971500	-34.63336000
4.79999989	7.37942900	-34.68258000
4.99999987	9.31225400	-35.09473000
5.19999986	8.96099900	-35.90059000
5.39999985	6.32566500	-36.31274000
5.59999984	1.93282500	-36.36196000
5.79999983	-2.81127000	-36.31274000
5.99999981	-6.85223900	-35.90059000
6.19999980	-9.13693400	-35.09473000
6.39999979	-9.13693400	-34.68258000
6.59999978	-6.85223900	-34.63336000
6.79999977	-2.98659000	-34.63336000
6.99999975	1.40563500	-34.63336000
7.19999974	5.09534900	-34.63336000
7.39999973	7.37942900	-34.63336000
7.59999972	7.55536400	-34.63336000
7.79999971	5.97379400	-34.63336000
7.99999970	2.98659000	-34.63336000
8.19999968	-0.35125490	-34.63336000
8.39999967	-3.16252500	-34.63336000
8.59999966	-4.74409400	-34.63336000
8.79999965	-5.09534900	-34.63336000
8.99999964	-4.21690500	-34.63336000
9.19999962	-2.28408000	-34.63336000
9.39999961	-0.35125490	-34.63336000
9.59999960	1.40563500	-34.63336000
9.79999959	2.28408000	-34.63336000
9.99999958	2.45940000	-34.68258000
10.19999956	1.93282500	-35.04552000
10.39999955	1.05376500	-35.44537000
10.59999954	0.17531990	-35.04552000
10.79999953	-0.52657480	-34.68258000
10.99999952	-0.87844490	-34.63336000
11.19999951	-1.05376500	-34.63336000
11.39999949	-0.87844490	-34.63336000
11.59999948	-0.52657480	-34.63336000
11.79999947	-0.17531990	-34.63336000
11.99999946	0.00000000	-34.63336000
12.19999945	0.00000000	-34.63336000
12.39999943	-0.17531990	-34.63336000
12.59999942	-0.17531990	-34.63336000
12.79999941	-0.17531990	-34.63336000
12.99999940	-0.17531990	-34.63336000
13.19999939	-0.17531990	-34.63336000
13.39999937	0.00000000	-34.63336000
13.59999936	0.00000000	-34.63336000
13.79999935	0.00000000	-34.63336000
13.99999934	0.00000000	-34.63336000
14.19999933	0.00000000	-34.63336000
14.39999932	0.00000000	-34.63336000
14.59999930	0.00000000	-34.63336000
14.79999929	0.00000000	-34.63336000
14.99999928	0.00000000	-34.63336000
15.19999927	0.00000000	-34.63336000
15.39999926	0.00000000	-34.63336000
15.59999924	0.00000000	-34.63336000
15.79999923	0.00000000	-34.63336000
15.99999922	0.00000000	-34.73179000
16.19999921	0.00000000	-35.45152000
16.39999920	0.00000000	-36.25738000
16.59999919	0.00000000	-35.45152000
16.79999917	0.00000000	-34.73179000
16.99999916	0.00000000	-34.63336000
17.19999915	0.00000000	-34.63336000
17.39999914	0.00000000	-34.63336000
17.59999913	0.00000000	-34.68258000
17.79999911	0.00000000	-35.04552000
17.99999910	0.00000000	-35.44537000
18.19999909	0.00000000	-35.04552000
18.39999908	0.00000000	-34.68258000
18.59999907	0.00000000	-34.63336000
18.79999905	0.00000000	-34.68258000
18.99999904	0.00000000	-35.04552000
19.19999903	0.00000000	-35.44537000
19.39999902	0.00000000	-35.04552000
19.59999901	0.00000000	-34.73179000
19.79999900	0.00000000	-35.04552000
19.99999898	0.00000000	-35.44537000
20.19999897	0.00000000	-35.04552000
20.39999896	0.00000000	-34.68258000
20.59999895	0.00000000	-34.63336000
20.79999894	0.00000000	-34.63336000
20.99999892	0.00000000	-34.63336000
21.19999891	0.00000000	-34.63336000
21.39999890	0.00000000	-34.63336000
21.59999889	0.00000000	-34.63336000
21.79999888	0.00000000	-34.63336000
21.99999886	0.00000000	-34.63336000
22.19999885	0.00000000	-34.63336000
22.39999884	0.00000000	-34.63336000
22.59999883	0.00000000	-34.68258000
22.79999882	0.00000000	-35.09473000
22.99999881	0.00000000	-35.90059000
23.19999879	0.00000000	-36.36196000
23.39999878	0.00000000	-36.77411000
23.59999877	0.00000000	-37.17397000
23.79999876	0.00000000	-36.77411000
23.99999875	0.00000000	-36.36196000
24.19999873	0.00000000	-35.85138000
24.39999872	0.00000000	-34.63336000
24.59999871	0.00000000	-33.35999000
24.79999870	0.00000000	-32.48646000
24.99999869	0.00000000	-31.63140000
25.19999867	0.00000000	-31.26845000
25.39999866	0.00000000	-31.72982000
25.59999865	0.00000000	-33.45841000
25.79999864	0.00000000	-36.41117000
25.99999863	0.00000000	-39.78223000
26.19999862	0.00000000	-42.73499000
26.39999860	0.00000000	-44.36515000
26.59999859	0.00000000	-43.90994000
26.79999858	0.00000000	-40.90182000
26.99999857	0.00000000	-35.85138000
27.19999856	0.00000000	-29.89665000
27.39999854	0.00000000	-24.34178000
27.59999853	0.00000000	-19.70349000
27.79999852	0.00000000	-17.30438000
27.99999851	0.00000000	-19.08834000
28.19999850	0.00000000	-25.45521000
28.39999848	0.00000000	-35.24237000
28.59999847	0.00000000	-46.65969000
28.79999846	0.00000000	-57.10506000
28.99999845	0.00000000	-63.01058000
29.19999844	0.00000000	-62.51230000
29.39999843	0.00000000	-55.67790000
29.59999841	0.00000000	-42.48892000
29.79999840	0.00000000	-26.07037000
29.99999839	0.00000000	-10.37771000
30.19999838	0.00000000	0.98425190
30.39999837	0.00000000	5.16117100
30.59999835	0.00000000	0.37524600
30.79999834	0.00000000	-13.23204000
30.99999833	0.00000000	-33.55684000
31.19999832	0.00000000	-55.88090000
31.39999831	0.00000000	-74.48326000
31.59999829	0.00000000	-84.62720000
31.79999828	0.00000000	-84.16584000
31.99999827	0.00000000	-72.65009000
32.19999826	0.00000000	-51.91314000
32.39999825	0.00000000	-26.53174000
32.59999824	0.00000000	-2.42987200
32.79999822	0.00000000	14.94217000
32.99999821	0.00000000	21.62278000
33.19999820	0.00000000	15.65576000
33.39999819	0.00000000	-2.57751000
33.59999818	0.00000000	-28.77091000
33.79999816	0.00000000	-57.10506000
33.99999815	0.00000000	-80.80093000
34.19999814	0.00000000	-94.35899000
34.39999813	0.00000000	-95.17101000
34.59999812	0.00000000	-82.48646000
34.79999810	0.00000000	-59.24582000
34.99999809	0.00000000	-31.31767000
35.19999808	0.00000000	-4.61983300
35.39999807	0.00000000	14.79454000
35.59999806	0.00000000	22.43479000
35.79999805	0.00000000	16.52928000
35.99999803	0.00000000	-1.20570900
36.19999802	0.00000000	-26.53174000
36.39999801	0.00000000	-53.18036000
36.59999800	0.00000000	-74.79084000
36.79999799	0.00000000	-87.06939000
36.99999797	0.00000000	-87.11860000
37.19999796	0.00000000	-75.35064000
37.39999795	0.00000000	-55.47490000
37.59999794	0.00000000	-31.82825000
37.79999793	0.00000000	-10.27313000
37.99999791	0.00000000	3.69094500
38.19999790	0.00000000	7.55413300
38.39999789	0.00000000	0.47367120
38.59999788	0.00000000	-14.65920000
38.79999787	0.00000000	-33.21235000
38.99999786	0.00000000	-50.99040000
39.19999784	0.00000000	-63.22588000
39.39999783	0.00000000	-67.55044000
39.59999782	0.00000000	-63.42274000
39.79999781	0.00000000	-52.92815000
39.99999780	0.00000000	-39.46850000
40.19999778	0.00000000	-26.37795000
40.39999777	0.00000000	-17.50123000
40.59999776	0.00000000	-14.45005000
40.79999775	0.00000000	-17.30438000
40.99999774	0.00000000	-24.39099000
41.19999772	0.00000000	-32.84941000
41.39999771	0.00000000	-40.85260000
41.59999770	0.00000000	-46.35211000
41.79999769	0.00000000	-47.63164000
41.99999768	0.00000000	-45.23253000
42.19999767	0.00000000	-40.19439000
42.39999765	0.00000000	-34.78100000
42.59999764	0.00000000	-30.55487000
42.79999763	0.00000000	-28.82013000
42.99999762	0.00000000	-29.58292000
43.19999761	0.00000000	-31.68061000
43.39999759	0.00000000	-34.58415000
43.59999758	0.00000000	-37.03248000
43.79999757	0.00000000	-37.48769000
43.99999756	0.00000000	-36.36196000
44.19999755	0.00000000	-35.09473000
44.39999753	0.00000000	-34.22121000
44.59999752	0.00000000	-33.45841000
44.79999751	0.00000000	-33.91363000
44.99999750	0.00000000	-35.94980000
45.19999749	0.00000000	-38.04749000
45.39999748	0.00000000	-39.73302000
45.59999746	0.00000000	-40.49582000
45.79999745	0.00000000	-39.22244000
45.99999744	0.00000000	-36.31274000
46.19999743	0.00000000	-32.94783000
46.39999742	0.00000000	-29.99508000
46.59999740	0.00000000	-28.31570000
46.79999739	0.00000000	-28.31570000
46.99999738	0.00000000	-30.04429000
47.19999737	0.00000000	-33.40920000
47.39999736	0.00000000	-37.63533000
47.59999734	0.00000000	-41.41240000
47.79999733	0.00000000	-43.95915000
47.99999732	0.00000000	-44.36515000
48.19999731	0.00000000	-42.73499000
48.39999730	0.00000000	-39.73302000
48.59999729	0.00000000	-35.95595000
48.79999727	0.00000000	-32.13582000
48.99999726	0.00000000	-29.63213000
49.19999725	0.00000000	-28.72170000
49.39999724	0.00000000	-29.53371000
49.59999723	0.00000000	-31.21924000
49.79999721	0.00000000	-33.35999000
49.99999720	0.00000000	-35.90059000
50.19999719	0.00000000	-38.04749000
50.39999718	0.00000000	-39.78223000
50.59999717	0.00000000	-41.04945000
50.79999715	0.00000000	-41.46161000
50.99999714	0.00000000	-41.04945000
51.19999713	0.00000000	-39.78223000
51.39999712	0.00000000	-38.04749000
51.59999711	0.00000000	-35.90059000
51.79999710	0.00000000	-33.35999000
51.99999708	0.00000000	-31.26845000
52.19999707	0.00000000	-29.94586000
52.39999706	0.00000000	-29.58292000
52.59999705	0.00000000	-30.45029000
52.79999704	0.00000000	-32.94783000
52.99999702	0.00000000	-35.90059000
53.19999701	0.00000000	-38.50886000
53.39999700	0.00000000	-41.04945000
53.59999699	0.00000000	-42.68578000
53.79999698	0.00000000	-42.68578000
53.99999696	0.00000000	-41.00024000
54.19999695	0.00000000	-38.04749000
54.39999694	0.00000000	-34.68258000
54.59999693	0.00000000	-31.72982000
54.79999692	0.00000000	-29.99508000
54.99999691	0.00000000	-29.58292000
55.19999689	0.00000000	-30.45029000
55.39999688	0.00000000	-32.99704000
55.59999687	0.00000000	-36.31274000
55.79999686	0.00000000	-39.32087000
55.99999685	0.00000000	-41.41240000
56.19999683	0.00000000	-42.27362000
56.39999682	0.00000000	-41.36319000
56.59999681	0.00000000	-38.81028000
56.79999680	0.00000000	-34.68258000
56.99999679	0.00000000	-30.96087000
57.19999677	0.00000000	-29.63213000
57.39999676	0.00000000	-29.94586000
57.59999675	0.00000000	-31.31767000
57.79999674	0.00000000	-33.82136000
57.99999673	0.00000000	-37.22933000
58.19999672	0.00000000	-40.14518000
58.39999670	0.00000000	-42.27977000
58.59999669	0.00000000	-42.63656000
58.79999668	0.00000000	-40.95103000
58.99999667	0.00000000	-37.58612000
59.19999666	0.00000000	-33.40920000
59.39999664	0.00000000	-30.04429000
59.59999663	0.00000000	-28.31570000
59.79999662	0.00000000	-28.31570000
59.99999661	0.00000000	-30.04429000
60.19999660	0.00000000	-33.40920000
60.39999658	0.00000000	-37.63533000
60.59999657	0.00000000	-41.41240000
60.79999656	0.00000000	-43.95915000
60.99999655	0.00000000	-44.36515000
61.19999654	0.00000000	-42.68578000
61.39999653	0.00000000	-39.32087000
61.59999651	0.00000000	-35.14394000
61.79999650	0.00000000	-31.72982000
61.99999649	0.00000000	-29.58292000
62.19999648	0.00000000	-28.72170000
62.39999647	0.00000000	-29.58292000
62.59999645	0.00000000	-31.68061000
62.79999644	0.00000000	-34.63336000
62.99999643	0.00000000	-37.58612000
63.19999642	0.00000000	-39.73302000
63.39999641	0.00000000	-41.04945000
63.59999639	0.00000000	-41.46161000
63.79999638	0.00000000	-41.04945000
63.99999637	0.00000000	-39.78223000
64.19999636	0.00000000	-38.09670000
64.39999635	0.00000000	-36.36196000
64.59999634	0.00000000	-34.63336000
64.79999632	0.00000000	-32.94783000
64.99999631	0.00000000	-31.63140000
65.19999630	0.00000000	-30.80709000
65.39999629	0.00000000	-30.40723000
65.59999628	0.00000000	-31.31767000
65.79999626	0.00000000	-33.40920000
65.99999625	0.00000000	-36.41117000
66.19999624	0.00000000	-39.78223000
66.39999623	0.00000000	-42.78420000
66.59999622	0.00000000	-44.87574000
66.79999620	0.00000000	-45.68774000
66.99999619	0.00000000	-44.36515000
67.19999618	0.00000000	-41.00024000
67.39999617	0.00000000	-36.36196000
67.59999616	0.00000000	-31.68061000
67.79999615	0.00000000	-27.85433000
67.99999613	0.00000000	-25.35679000
68.19999612	0.00000000	-25.40600000
68.39999611	0.00000000	-28.36491000
68.59999610	0.00000000	-33.40920000
68.79999609	0.00000000	-39.32087000
68.99999607	0.00000000	-44.41437000
69.19999606	0.00000000	-47.82849000
69.39999605	0.00000000	-49.05265000
69.59999604	0.00000000	-47.37327000
69.79999603	0.00000000	-43.14714000
69.99999601	0.00000000	-37.63533000
70.19999600	0.00000000	-31.72982000
70.39999599	0.00000000	-27.09153000
70.59999598	0.00000000	-24.95079000
70.79999597	0.00000000	-25.30758000
70.99999596	0.00000000	-27.85433000
71.19999594	0.00000000	-31.68061000
71.39999593	0.00000000	-36.41117000
71.59999592	0.00000000	-41.46161000
71.79999591	0.00000000	-45.63853000
71.99999590	0.00000000	-47.37327000
72.19999588	0.00000000	-46.56127000
72.39999587	0.00000000	-44.00837000
72.59999586	0.00000000	-39.73302000
72.79999585	0.00000000	-34.68258000
72.99999584	0.00000000	-29.99508000
73.19999582	0.00000000	-26.63017000
73.39999581	0.00000000	-25.35679000
73.59999580	0.00000000	-26.63017000
73.79999579	0.00000000	-29.99508000
73.99999578	0.00000000	-34.68258000
74.19999577	0.00000000	-39.73302000
74.39999575	0.00000000	-43.95915000
74.59999574	0.00000000	-46.05069000
74.79999573	0.00000000	-45.69389000
74.99999572	0.00000000	-43.14714000
75.19999571	0.00000000	-39.32087000
75.39999569	0.00000000	-34.68258000
75.59999568	0.00000000	-30.45644000
75.79999567	0.00000000	-27.95275000
75.99999566	0.00000000	-27.49754000
76.19999565	0.00000000	-29.63213000
76.39999563	0.00000000	-33.40920000
76.59999562	0.00000000	-38.04749000
76.79999561	0.00000000	-42.32283000
76.99999560	0.00000000	-45.23868000
77.19999559	0.00000000	-46.49975000
77.39999558	0.00000000	-44.72810000
77.59999556	0.00000000	-40.59424000
77.79999555	0.00000000	-35.04552000
77.99999554	0.00000000	-29.58292000
78.19999553	0.00000000	-25.40600000
78.39999552	0.00000000	-24.18184000
78.59999550	0.00000000	-26.63017000
78.79999549	0.00000000	-31.26845000
78.99999548	0.00000000	-36.82332000
79.19999547	0.00000000	-42.78420000
79.39999546	0.00000000	-47.77928000
79.59999544	0.00000000	-50.32603000
79.79999543	0.00000000	-49.46481000
79.99999542	0.00000000	-45.68774000
80.19999541	0.00000000	-39.73302000
80.39999540	0.00000000	-32.99704000
80.59999539	0.00000000	-27.04232000
80.79999537	0.00000000	-23.26525000
80.99999536	0.00000000	-22.40403000
81.19999535	0.00000000	-24.95079000
81.39999534	0.00000000	-30.04429000
81.59999533	0.00000000	-36.82332000
81.79999531	0.00000000	-43.95915000
81.99999530	0.00000000	-49.05265000
82.19999529	0.00000000	-51.24261000
82.39999528	0.00000000	-50.83661000
82.59999527	0.00000000	-47.82849000
82.79999525	0.00000000	-42.68578000
82.99999524	0.00000000	-35.95595000
83.19999523	0.00000000	-29.18307000
83.39999522	0.00000000	-24.53863000
83.59999521	0.00000000	-22.35482000
83.79999520	0.00000000	-23.21604000
83.99999518	0.00000000	-26.58095000
84.19999517	0.00000000	-31.72982000
84.39999516	0.00000000	-38.09670000
84.59999515	0.00000000	-44.41437000
84.79999514	0.00000000	-49.05265000
84.99999512	0.00000000	-50.83661000
85.19999511	0.00000000	-49.97539000
85.39999510	0.00000000	-46.96112000
85.59999509	0.00000000	-41.46161000
85.79999508	0.00000000	-35.14394000
85.99999506	0.00000000	-29.53371000
86.19999505	0.00000000	-24.85236000
86.39999504	0.00000000	-21.99188000
86.59999503	0.00000000	-22.40403000
86.79999502	0.00000000	-26.16880000
86.99999501	0.00000000	-31.68061000
87.19999499	0.00000000	-38.09670000
87.39999498	0.00000000	-44.41437000
87.59999497	0.00000000	-49.05265000
87.79999496	0.00000000	-50.78740000
87.99999495	0.00000000	-49.56323000
88.19999493	0.00000000	-46.14911000
88.39999492	0.00000000	-41.04945000
88.59999491	0.00000000	-35.09473000
88.79999490	0.00000000	-29.58292000
88.99999489	0.00000000	-25.35679000
89.19999487	0.00000000	-23.67741000
89.39999486	0.00000000	-24.90157000
89.59999485	0.00000000	-28.31570000
89.79999484	0.00000000	-33.35999000
89.99999483	0.00000000	-38.85950000
90.19999482	0.00000000	-43.14714000
90.39999480	0.00000000	-46.14911000
90.59999479	0.00000000	-47.37327000
90.79999478	0.00000000	-46.09990000
90.99999477	0.00000000	-42.73499000
91.19999476	0.00000000	-38.09670000
91.39999474	0.00000000	-33.45841000
91.59999473	0.00000000	-30.04429000
91.79999472	0.00000000	-28.31570000
91.99999471	0.00000000	-28.26648000
92.19999470	0.00000000	-29.58292000
92.39999468	0.00000000	-32.08661000
92.59999467	0.00000000	-35.49459000
92.79999466	0.00000000	-38.45964000
92.99999465	0.00000000	-41.04945000
93.19999464	0.00000000	-42.68578000
93.39999463	0.00000000	-42.73499000
93.59999461	0.00000000	-41.51083000
93.79999460	0.00000000	-39.78223000
93.99999459	0.00000000	-37.68455000
94.19999458	0.00000000	-35.59916000
94.39999457	0.00000000	-34.68258000
94.59999455	0.00000000	-34.22121000
94.79999454	0.00000000	-33.82136000
94.99999453	0.00000000	-34.27042000
95.19999452	0.00000000	-35.04552000
95.39999451	0.00000000	-35.94980000
95.59999449	0.00000000	-36.77411000
95.79999448	0.00000000	-37.63533000
95.99999447	0.00000000	-38.04749000
96.19999446	0.00000000	-38.09670000
96.39999445	0.00000000	-38.14591000
96.59999444	0.00000000	-38.50886000
96.79999442	0.00000000	-38.90871000
96.99999441	0.00000000	-38.45964000
97.19999440	0.00000000	-37.68455000
97.39999439	0.00000000	-36.82332000
97.59999438	0.00000000	-36.36196000
97.79999436	0.00000000	-35.90059000
97.99999435	0.00000000	-35.09473000
98.19999434	0.00000000	-34.73179000
98.39999433	0.00000000	-35.09473000
98.59999432	0.00000000	-35.94980000
98.79999430	0.00000000	-36.82332000
98.99999429	0.00000000	-38.09670000
99.19999428	0.00000000	-39.32087000
99.39999427	0.00000000	-39.78223000
99.59999426	0.00000000	-39.78223000
99.79999425	0.00000000	-39.37008000
99.99999423	0.00000000	-38.50886000
100.19999422	0.00000000	-37.63533000
100.39999421	0.00000000	-36.36196000
100.59999420	0.00000000	-35.14394000
100.79999419	0.00000000	-34.68258000
100.99999417	0.00000000	-34.63336000
101.19999416	0.00000000	-34.68258000
101.39999415	0.00000000	-35.14394000
101.59999414	0.00000000	-36.41117000
101.79999413	0.00000000	-38.04749000
101.99999411	0.00000000	-39.32087000
102.19999410	0.00000000	-39.73302000
102.39999409	0.00000000	-39.37008000
102.59999408	0.00000000	-38.50886000
102.79999407	0.00000000	-37.63533000
102.99999406	0.00000000	-36.36196000
103.19999404	0.00000000	-35.14394000
103.39999403	0.00000000	-34.68258000
103.59999402	0.00000000	-34.63336000
103.79999401	0.00000000	-34.68258000
103.99999400	0.00000000	-35.14394000
104.19999398	0.00000000	-36.36196000
104.39999397	0.00000000	-37.63533000
104.59999396	0.00000000	-38.45964000
104.79999395	0.00000000	-38.90871000
104.99999394	0.00000000	-38.50886000
105.19999392	0.00000000	-38.09670000
105.39999391	0.00000000	-37.58612000
105.59999390	0.00000000	-36.36196000
105.79999389	0.00000000	-35.14394000
105.99999388	0.00000000	-34.68258000
