Time	Channel A	Channel B
(us)	(V)	(mV)

-4.49999956	0.00000000	-6.51451700
-4.29999957	0.00000000	-6.06545300
-4.09999958	0.00000000	-6.05314900
-3.89999959	0.00000000	-5.60408400
-3.69999960	0.00000000	-5.29035400
-3.49999962	0.00000000	-5.60408400
-3.29999963	0.00000000	-6.05314900
-3.09999964	0.00000000	-6.06545300
-2.89999965	0.00000000	-6.51451700
-2.69999966	0.00000000	-6.87746000
-2.49999968	0.00000000	-6.87746000
-2.29999969	0.00000000	-6.51451700
-2.09999970	0.00000000	-6.06545300
-1.89999971	0.00000000	-6.10236200
-1.69999972	0.00000000	-6.06545300
-1.49999973	0.00000000	-6.46530500
-1.29999975	0.00000000	-6.41609200
-1.09999976	0.00000000	-5.70251000
-0.89999977	0.00000000	-5.65329700
-0.69999978	0.00000000	-6.05314900
-0.49999979	0.00000000	-6.01624000
-0.29999981	0.35125490	-6.10236200
-0.09999982	0.70250980	-6.06545300
0.10000017	1.05376500	-6.51451700
0.30000016	1.05376500	-6.87746000
0.50000015	0.70250980	-6.92667200
0.70000013	0.00000000	-6.92667200
0.90000012	-0.87844490	-6.92667200
1.10000011	-1.93282500	-6.87746000
1.30000010	-2.63533500	-6.46530500
1.50000009	-2.81127000	-5.65329700
1.70000008	-2.10814500	-5.24114100
1.90000006	-0.70250980	-5.19192900
2.10000005	1.40563500	-5.19192900
2.30000004	3.51377900	-5.24114100
2.50000003	4.91941500	-5.65329700
2.70000002	5.27128500	-6.46530500
2.90000000	4.21690500	-6.87746000
3.09999999	1.75689000	-6.92667200
3.29999998	-1.40563500	-6.92667200
3.49999997	-4.91941500	-6.87746000
3.69999996	-7.20410900	-6.46530500
3.89999994	-8.08255400	-5.65329700
4.09999993	-6.67691900	-5.24114100
4.29999992	-3.51377900	-5.19192900
4.49999991	0.70250980	-5.19192900
4.69999990	4.91941500	-5.24114100
4.89999989	8.25849000	-5.65329700
5.09999987	9.48818900	-6.46530500
5.29999986	8.25849000	-6.87746000
5.49999985	4.91941500	-6.92667200
5.69999984	0.35125490	-6.92667200
5.89999983	-4.21690500	-6.87746000
6.09999981	-7.90661900	-6.46530500
6.29999980	-9.48818900	-5.65329700
6.49999979	-8.60974400	-5.24114100
6.69999978	-5.79847400	-5.19192900
6.89999977	-1.58095500	-5.19192900
7.09999975	2.63533500	-5.24114100
7.29999974	6.14972900	-5.65329700
7.49999973	7.55536400	-6.46530500
7.69999972	7.20410900	-6.87746000
7.89999971	5.09534900	-6.92667200
8.09999970	1.93282500	-6.92667200
8.29999968	-1.40563500	-6.92667200
8.49999967	-3.86565000	-6.87746000
8.69999966	-5.09534900	-6.51451700
8.89999965	-4.91941500	-6.06545300
9.09999964	-3.68971500	-6.05314900
9.29999962	-1.75689000	-5.60408400
9.49999961	0.35125490	-5.29035400
9.69999960	1.75689000	-5.60408400
9.89999959	2.45940000	-6.05314900
10.09999958	2.45940000	-6.01624000
10.29999956	1.75689000	-6.10236200
10.49999955	0.87844490	-6.06545300
10.69999954	0.00000000	-6.51451700
10.89999953	-0.70250980	-6.82824800
11.09999952	-0.87844490	-6.51451700
11.29999951	-0.87844490	-6.06545300
11.49999949	-0.70250980	-6.05314900
11.69999948	-0.35125490	-5.60408400
11.89999947	0.00000000	-5.24114100
12.09999946	0.00000000	-5.19192900
12.29999945	0.00000000	-5.19192900
12.49999943	-0.17531990	-5.19192900
12.69999942	-0.17531990	-5.19192900
12.89999941	-0.17531990	-5.19192900
13.09999940	-0.17531990	-5.19192900
13.29999939	-0.17531990	-5.24114100
13.49999937	0.00000000	-5.65329700
13.69999936	0.00000000	-6.41609200
13.89999935	0.00000000	-6.46530500
14.09999934	0.00000000	-6.11466500
14.29999933	0.00000000	-6.46530500
14.49999932	0.00000000	-6.46530500
14.69999930	0.00000000	-6.11466500
14.89999929	0.00000000	-6.51451700
15.09999928	0.00000000	-6.82824800
15.29999927	0.00000000	-6.46530500
15.49999926	0.00000000	-5.65329700
15.69999924	0.00000000	-5.24114100
15.89999923	0.00000000	-5.19192900
16.09999922	0.00000000	-5.19192900
16.29999921	0.00000000	-5.24114100
16.49999920	0.00000000	-5.60408400
16.69999919	0.00000000	-6.00393600
16.89999917	0.00000000	-5.60408400
17.09999916	0.00000000	-5.24114100
17.29999915	0.00000000	-5.19192900
17.49999914	0.00000000	-5.24114100
17.69999913	0.00000000	-5.60408400
17.89999911	0.00000000	-6.00393600
18.09999910	0.00000000	-5.60408400
18.29999909	0.00000000	-5.24114100
18.49999908	0.00000000	-5.19192900
18.69999907	0.00000000	-5.19192900
18.89999905	0.00000000	-5.19192900
19.09999904	0.00000000	-5.19192900
19.29999903	0.00000000	-5.19192900
19.49999902	0.00000000	-5.19192900
19.69999901	0.00000000	-5.19192900
19.89999900	0.00000000	-5.19192900
20.09999898	0.00000000	-5.19192900
20.29999897	0.00000000	-5.24114100
20.49999896	0.00000000	-5.65329700
20.69999895	0.00000000	-6.41609200
20.89999894	0.00000000	-6.41609200
21.09999892	0.00000000	-5.65329700
21.29999891	0.00000000	-5.24114100
21.49999890	0.00000000	-5.19192900
21.69999889	0.00000000	-5.19192900
21.89999888	0.00000000	-5.19192900
22.09999886	0.00000000	-5.19192900
22.29999885	0.00000000	-5.19192900
22.49999884	0.00000000	-5.24114100
22.69999883	0.00000000	-5.65329700
22.89999882	0.00000000	-6.46530500
23.09999881	0.00000000	-6.87746000
23.29999879	0.00000000	-6.92667200
23.49999878	0.00000000	-6.92667200
23.69999877	0.00000000	-6.92667200
23.89999876	0.00000000	-6.92667200
24.09999875	0.00000000	-6.87746000
24.29999873	0.00000000	-6.41609200
24.49999872	0.00000000	-5.19192900
24.69999871	0.00000000	-3.92470400
24.89999870	0.00000000	-3.05118100
25.09999869	0.00000000	-2.23917300
25.29999867	0.00000000	-2.28838600
25.49999866	0.00000000	-3.56176100
25.69999865	0.00000000	-5.70251000
25.89999864	0.00000000	-8.65526600
26.09999863	0.00000000	-11.60802000
26.29999862	0.00000000	-13.75492000
26.49999860	0.00000000	-14.97293000
26.69999859	0.00000000	-14.41929000
26.89999858	0.00000000	-11.05438000
27.09999857	0.00000000	-5.55487200
27.29999856	0.00000000	0.41215550
27.49999854	0.00000000	6.31766700
27.69999853	0.00000000	10.44537000
27.89999852	0.00000000	10.85753000
28.09999851	0.00000000	7.39419200
28.29999850	0.00000000	0.10457680
28.49999848	0.00000000	-10.43922000
28.69999847	0.00000000	-21.39518000
28.89999846	0.00000000	-29.85359000
29.09999845	0.00000000	-33.98130000
29.29999844	0.00000000	-31.79133000
29.49999843	0.00000000	-22.83464000
29.69999841	0.00000000	-8.86441900
29.89999840	0.00000000	7.64025500
30.09999839	0.00000000	22.37328000
30.29999838	0.00000000	31.69291000
30.49999837	0.00000000	33.27386000
30.69999835	0.00000000	25.99040000
30.89999834	0.00000000	10.24852000
31.09999833	0.00000000	-10.85138000
31.29999832	0.00000000	-32.35113000
31.49999831	0.00000000	-48.40674000
31.69999829	0.00000000	-55.18577000
31.89999828	0.00000000	-51.31028000
32.09999827	0.00000000	-36.84178000
32.29999826	0.00000000	-14.41929000
32.49999825	0.00000000	10.95595000
32.69999824	0.00000000	33.37229000
32.89999822	0.00000000	47.74852000
33.09999821	0.00000000	50.65207000
33.29999820	0.00000000	40.87106000
33.49999819	0.00000000	20.12795000
33.69999818	0.00000000	-6.92667200
33.89999816	0.00000000	-33.98130000
34.09999815	0.00000000	-54.72441000
34.29999814	0.00000000	-64.45620000
34.49999813	0.00000000	-61.09129000
34.69999812	0.00000000	-45.39862000
34.89999810	0.00000000	-20.88459000
35.09999809	0.00000000	7.08046200
35.29999808	0.00000000	32.00664000
35.49999807	0.00000000	48.51131000
35.69999806	0.00000000	52.28838000
35.89999805	0.00000000	42.65502000
36.09999803	0.00000000	22.37328000
36.29999802	0.00000000	-3.41412400
36.49999801	0.00000000	-28.83858000
36.69999800	0.00000000	-48.25910000
36.89999799	0.00000000	-57.16658000
37.09999797	0.00000000	-53.45103000
37.29999796	0.00000000	-39.13017000
37.49999795	0.00000000	-17.98105000
37.69999794	0.00000000	5.25344500
37.89999793	0.00000000	24.66781000
38.09999791	0.00000000	35.72834000
38.29999790	0.00000000	36.18356000
38.49999789	0.00000000	26.55019000
38.69999788	0.00000000	9.73179100
38.89999787	0.00000000	-9.22736200
39.09999786	0.00000000	-25.32603000
39.29999784	0.00000000	-35.10704000
39.49999783	0.00000000	-36.89099000
39.69999782	0.00000000	-31.02854000
39.89999781	0.00000000	-19.66043000
40.09999780	0.00000000	-5.80093500
40.29999778	0.00000000	6.42224400
40.49999777	0.00000000	13.66265000
40.69999776	0.00000000	15.03445000
40.89999775	0.00000000	10.85753000
41.09999774	0.00000000	2.90354300
41.29999772	0.00000000	-6.31766700
41.49999771	0.00000000	-13.90871000
41.69999770	0.00000000	-17.78420000
41.89999769	0.00000000	-17.83341000
42.09999768	0.00000000	-14.51772000
42.29999767	0.00000000	-9.11663300
42.49999765	0.00000000	-4.07234200
42.69999764	0.00000000	-0.65821850
42.89999763	0.00000000	0.61515740
43.09999762	0.00000000	-0.55979330
43.29999761	0.00000000	-3.00196800
43.49999759	0.00000000	-5.14271600
43.69999758	0.00000000	-6.82824800
43.89999757	0.00000000	-7.64025500
44.09999756	0.00000000	-6.82824800
44.29999755	0.00000000	-5.24114100
44.49999753	0.00000000	-4.02313000
44.69999752	0.00000000	-4.02313000
44.89999751	0.00000000	-5.24114100
45.09999750	0.00000000	-6.97588500
45.29999749	0.00000000	-9.01820900
45.49999748	0.00000000	-10.64222000
45.69999746	0.00000000	-10.19316000
45.89999745	0.00000000	-8.14468500
46.09999744	0.00000000	-5.14271600
46.29999743	0.00000000	-1.77780500
46.49999742	0.00000000	1.17495100
46.69999740	0.00000000	2.80511800
46.89999739	0.00000000	2.34990100
47.09999738	0.00000000	-0.60900590
47.29999737	0.00000000	-5.19192900
47.49999736	0.00000000	-9.83021600
47.69999734	0.00000000	-13.19513000
47.89999733	0.00000000	-14.51772000
48.09999732	0.00000000	-13.70571000
48.29999731	0.00000000	-11.55881000
48.49999730	0.00000000	-8.14468500
48.69999729	0.00000000	-3.97391700
48.89999727	0.00000000	-0.55979330
49.09999726	0.00000000	1.53174200
49.29999725	0.00000000	1.98695800
49.49999724	0.00000000	0.36294290
49.69999723	0.00000000	-1.72859200
49.89999721	0.00000000	-3.97391700
50.09999720	0.00000000	-6.87746000
50.29999719	0.00000000	-9.42421200
50.49999718	0.00000000	-10.70374000
50.69999717	0.00000000	-11.15280000
50.89999715	0.00000000	-10.29158000
51.09999714	0.00000000	-8.65526600
51.29999713	0.00000000	-6.92667200
51.49999712	0.00000000	-5.19192900
51.69999711	0.00000000	-3.46333600
51.89999710	0.00000000	-1.77780500
52.09999708	0.00000000	-0.51058070
52.29999707	0.00000000	-0.09842519
52.49999706	0.00000000	-0.51058070
52.69999705	0.00000000	-1.82701800
52.89999704	0.00000000	-3.92470400
53.09999702	0.00000000	-6.46530500
53.29999701	0.00000000	-8.55684000
53.49999700	0.00000000	-9.87942800
53.69999699	0.00000000	-10.29158000
53.89999698	0.00000000	-9.87942800
54.09999696	0.00000000	-8.55684000
54.29999695	0.00000000	-6.46530500
54.49999694	0.00000000	-3.92470400
54.69999693	0.00000000	-1.82701800
54.89999692	0.00000000	-0.60900590
55.09999691	0.00000000	-1.01501000
55.29999689	0.00000000	-3.10039400
55.49999688	0.00000000	-5.60408400
55.69999687	0.00000000	-8.14468500
55.89999686	0.00000000	-9.83021600
56.09999685	0.00000000	-10.29158000
56.29999683	0.00000000	-9.83021600
56.49999682	0.00000000	-8.09547100
56.69999681	0.00000000	-5.19192900
56.89999680	0.00000000	-2.28838600
57.09999679	0.00000000	-0.55979330
57.29999677	0.00000000	-0.14763780
57.49999676	0.00000000	-1.01501000
57.69999675	0.00000000	-3.56176100
57.89999674	0.00000000	-6.87746000
58.09999673	0.00000000	-9.87942800
58.29999672	0.00000000	-11.97096000
58.49999670	0.00000000	-12.78297000
58.69999669	0.00000000	-11.50960000
58.89999668	0.00000000	-8.55684000
59.09999667	0.00000000	-4.77977300
59.29999666	0.00000000	-0.96579720
59.49999664	0.00000000	1.53174200
59.69999663	0.00000000	2.44217500
59.89999662	0.00000000	1.53174200
60.09999661	0.00000000	-1.01501000
60.29999660	0.00000000	-5.24114100
60.49999658	0.00000000	-9.78100300
60.69999657	0.00000000	-12.78912000
60.89999656	0.00000000	-13.70571000
61.09999655	0.00000000	-13.24434000
61.29999654	0.00000000	-11.10359000
61.49999653	0.00000000	-7.33882900
61.69999651	0.00000000	-3.51254900
61.89999650	0.00000000	-0.09842519
62.09999649	0.00000000	2.39911400
62.29999648	-0.17531990	2.80511800
62.49999647	0.00000000	1.17495100
62.69999645	0.00000000	-1.77780500
62.89999644	0.00000000	-5.14271600
63.09999643	0.00000000	-8.14468500
63.29999642	0.00000000	-10.29158000
63.49999641	0.00000000	-11.55881000
63.69999639	0.00000000	-11.55881000
63.89999638	0.00000000	-10.34080000
64.09999637	0.00000000	-8.65526600
64.29999636	0.00000000	-6.92667200
64.49999635	0.00000000	-5.19192900
64.69999634	0.00000000	-3.46333600
64.89999632	0.00000000	-1.77780500
65.09999631	0.00000000	-0.51058070
65.29999630	0.00000000	-0.09842519
65.49999629	0.00000000	-0.51058070
65.69999628	0.00000000	-1.82701800
65.89999626	0.00000000	-3.97391700
66.09999625	0.00000000	-6.92667200
66.29999624	0.00000000	-9.87942800
66.49999623	0.00000000	-12.02018000
66.69999622	0.00000000	-13.29355000
66.89999620	0.00000000	-13.24434000
67.09999619	0.00000000	-11.50960000
67.29999618	0.00000000	-8.14468500
67.49999617	0.00000000	-3.87549200
67.69999616	0.00000000	0.36294290
67.89999615	0.00000000	4.12770700
68.09999613	0.00000000	5.75787400
68.29999612	0.00000000	4.53371000
68.49999611	0.00000000	1.16879900
68.69999610	0.00000000	-3.51254900
68.89999609	0.00000000	-8.60605200
69.09999607	0.00000000	-13.29355000
69.29999606	0.00000000	-16.60925000
69.49999605	0.00000000	-17.42126000
69.69999604	0.00000000	-14.97293000
69.89999603	0.00000000	-10.75295000
70.09999601	0.00000000	-6.01008800
70.29999600	0.00000000	-0.51058070
70.49999599	0.00000000	4.07849400
70.69999598	0.00000000	6.21924200
70.89999597	0.00000000	5.81323800
71.09999596	0.00000000	2.85433100
71.29999594	0.00000000	-1.77780500
71.49999593	0.00000000	-6.87746000
71.69999592	0.00000000	-11.55881000
71.89999591	0.00000000	-14.92372000
72.09999590	0.00000000	-16.24631000
72.29999588	0.00000000	-15.38509000
72.49999587	0.00000000	-12.83218000
72.69999586	0.00000000	-8.55684000
72.89999585	0.00000000	-3.51254900
73.09999584	0.00000000	1.11958700
73.29999582	0.00000000	4.07849400
73.49999581	0.00000000	4.53371000
73.69999580	0.00000000	2.85433100
73.89999579	0.00000000	-0.55979330
74.09999578	0.00000000	-5.19192900
74.29999577	0.00000000	-9.83021600
74.49999575	0.00000000	-13.24434000
74.69999574	0.00000000	-14.92372000
74.89999573	0.00000000	-14.46850000
75.09999572	0.00000000	-11.50960000
75.29999571	0.00000000	-6.87746000
75.49999569	0.00000000	-1.82701800
75.69999568	0.00000000	2.39911400
75.89999567	0.00000000	4.48449800
76.09999566	0.00000000	4.12770700
76.29999565	0.00000000	1.53174200
76.49999563	0.00000000	-2.70054100
76.69999562	0.00000000	-8.19389700
76.89999561	0.00000000	-13.19513000
77.09999560	0.00000000	-16.15404000
77.29999559	0.00000000	-16.15404000
77.49999558	0.00000000	-13.19513000
77.69999556	0.00000000	-8.14468500
77.89999555	0.00000000	-2.18996000
78.09999554	0.00000000	3.26648600
78.29999553	0.00000000	7.08046200
78.49999552	0.00000000	7.84940900
78.69999550	0.00000000	5.35187000
78.89999549	0.00000000	-0.14763780
79.09999548	0.00000000	-6.87746000
79.29999547	0.00000000	-13.24434000
79.49999546	0.00000000	-17.93184000
79.69999544	0.00000000	-19.97416000
79.89999543	0.00000000	-18.69463000
80.09999542	0.00000000	-13.60728000
80.29999541	0.00000000	-6.51451700
80.49999540	0.00000000	0.76279520
80.69999539	0.00000000	6.68061000
80.89999537	0.00000000	10.44537000
81.09999536	0.00000000	10.39616000
81.29999535	0.00000000	6.21924200
81.49999534	0.00000000	-0.51058070
81.69999533	0.00000000	-8.14468500
81.89999531	0.00000000	-14.92372000
82.09999530	0.00000000	-19.61122000
82.29999529	0.00000000	-21.34596000
82.49999528	0.00000000	-20.02337000
82.69999527	0.00000000	-15.74188000
82.89999525	0.00000000	-8.60605200
83.09999524	0.00000000	-1.01501000
83.29999523	0.00000000	4.99507900
83.49999522	0.00000000	9.22121000
83.69999521	0.00000000	10.49459000
83.89999520	0.00000000	8.40920300
84.09999518	0.00000000	4.12770700
84.29999517	0.00000000	-2.23917300
84.49999516	0.00000000	-9.41806000
84.69999515	0.00000000	-15.33587000
84.89999514	0.00000000	-19.20522000
85.09999512	0.00000000	-20.02337000
85.29999511	0.00000000	-17.98105000
85.49999510	0.00000000	-13.65650000
85.69999509	0.00000000	-7.73868000
85.89999508	0.00000000	-0.96579720
86.09999506	0.00000000	4.53371000
86.29999505	0.00000000	7.99704600
86.49999504	0.00000000	9.22121000
86.69999503	0.00000000	7.54183000
86.89999502	0.00000000	3.31569900
87.09999501	0.00000000	-2.23917300
87.29999499	0.00000000	-8.60605200
87.49999498	0.00000000	-14.51772000
87.69999497	0.00000000	-18.33784000
87.89999496	0.00000000	-19.61122000
88.09999495	0.00000000	-17.88263000
88.29999493	0.00000000	-13.29355000
88.49999492	0.00000000	-7.33882900
88.69999491	0.00000000	-1.37180100
88.89999490	0.00000000	4.12770700
89.09999489	0.00000000	7.49261800
89.29999487	0.00000000	7.94783400
89.49999486	0.00000000	5.85629900
89.69999485	0.00000000	1.58095500
89.89999484	0.00000000	-3.87549200
90.09999483	0.00000000	-9.42421200
90.29999482	0.00000000	-13.65650000
90.49999480	0.00000000	-16.20325000
90.69999479	0.00000000	-16.20325000
90.89999478	0.00000000	-13.70571000
91.09999477	0.00000000	-9.87942800
91.29999476	0.00000000	-5.19192900
91.49999474	0.00000000	-0.60900590
91.69999473	0.00000000	2.39911400
91.89999472	0.00000000	3.26648600
92.09999471	0.00000000	2.44832700
92.29999470	0.00000000	-0.09842519
92.49999468	0.00000000	-3.46333600
92.69999467	0.00000000	-6.82824800
92.89999466	0.00000000	-9.37500000
93.09999465	0.00000000	-10.29158000
93.29999464	0.00000000	-10.34080000
93.49999463	0.00000000	-9.87942800
93.69999461	0.00000000	-8.60605200
93.89999460	0.00000000	-6.87746000
94.09999459	0.00000000	-4.77977300
94.29999458	0.00000000	-2.69439000
94.49999457	0.00000000	-1.82701800
94.69999455	0.00000000	-1.77780500
94.89999454	0.00000000	-2.18996000
95.09999453	0.00000000	-3.05118100
95.29999452	0.00000000	-3.87549200
95.49999451	0.00000000	-4.77977300
95.69999449	0.00000000	-5.60408400
95.89999448	0.00000000	-6.46530500
96.09999447	0.00000000	-6.87746000
96.29999446	0.00000000	-6.92667200
96.49999445	0.00000000	-6.92667200
96.69999444	0.00000000	-6.87746000
96.89999442	0.00000000	-6.46530500
97.09999441	0.00000000	-5.65329700
97.29999440	0.00000000	-5.19192900
97.49999439	0.00000000	-4.73056000
97.69999438	0.00000000	-3.92470400
97.89999436	0.00000000	-3.51254900
98.09999435	0.00000000	-3.46333600
98.29999434	0.00000000	-3.46333600
98.49999433	0.00000000	-3.51254900
98.69999432	0.00000000	-3.92470400
98.89999430	0.00000000	-4.77977300
99.09999429	0.00000000	-5.60408400
99.29999428	0.00000000	-6.46530500
99.49999427	0.00000000	-6.87746000
99.69999426	0.00000000	-6.87746000
99.89999425	0.00000000	-6.46530500
100.09999423	0.00000000	-5.60408400
100.29999422	0.00000000	-4.77977300
100.49999421	0.00000000	-3.87549200
100.69999420	0.00000000	-3.05118100
100.89999419	0.00000000	-2.23917300
101.09999417	0.00000000	-2.23917300
101.29999416	0.00000000	-3.10039400
101.49999415	0.00000000	-4.33070900
101.69999414	0.00000000	-6.05930100
101.89999413	0.00000000	-7.28961600
102.09999411	0.00000000	-8.14468500
102.29999410	0.00000000	-8.14468500
102.49999409	0.00000000	-7.33882900
102.69999408	0.00000000	-6.51451700
102.89999407	0.00000000	-5.60408400
103.09999406	0.00000000	-4.77977300
103.29999404	0.00000000	-3.92470400
103.49999403	0.00000000	-3.51254900
103.69999402	0.00000000	-3.46333600
103.89999401	0.00000000	-3.51254900
104.09999400	0.00000000	-3.92470400
104.29999398	0.00000000	-4.77977300
104.49999397	0.00000000	-5.60408400
104.69999396	0.00000000	-6.46530500
104.89999395	0.00000000	-6.87746000
105.09999394	0.00000000	-6.87746000
105.29999392	0.00000000	-6.46530500
105.49999391	0.00000000	-5.60408400
105.69999390	0.00000000	-4.77977300
105.89999389	0.00000000	-3.87549200
106.09999388	0.00000000	-3.05118100
106.29999387	0.00000000	-2.23917300
106.49999385	0.00000000	-2.28838600
106.69999384	0.00000000	-3.51254900
106.89999383	0.00000000	-5.14271600
107.09999382	0.00000000	-6.46530500
107.29999381	0.00000000	-7.33882900
107.49999379	0.00000000	-8.14468500
107.69999378	0.00000000	-8.09547100
107.89999377	0.00000000	-6.92667200
108.09999376	0.00000000	-5.60408400
108.29999375	0.00000000	-4.32455700
108.49999374	0.00000000	-2.64517700
108.69999372	0.00000000	-1.82701800
108.89999371	0.00000000	-1.77780500
