Time	Channel A	Channel B
(us)	(V)	(mV)

-4.59999956	0.00000000	-51.95005000
-4.39999957	0.00000000	-51.95005000
-4.19999958	0.00000000	-51.95005000
-3.99999959	0.00000000	-51.95005000
-3.79999960	0.00000000	-51.95005000
-3.59999962	0.00000000	-51.95005000
-3.39999963	0.00000000	-51.95005000
-3.19999964	0.00000000	-51.95005000
-2.99999965	0.00000000	-51.95005000
-2.79999966	0.00000000	-51.95005000
-2.59999968	0.00000000	-51.95005000
-2.39999969	0.00000000	-51.95005000
-2.19999970	0.00000000	-51.95005000
-1.99999971	0.00000000	-51.95005000
-1.79999972	0.00000000	-51.95005000
-1.59999973	0.00000000	-51.95005000
-1.39999975	0.00000000	-51.95005000
-1.19999976	0.00000000	-51.95005000
-0.99999977	0.00000000	-51.95005000
-0.79999978	0.00000000	-51.95005000
-0.59999979	0.00000000	-51.95005000
-0.39999981	0.17531990	-51.95005000
-0.19999982	0.52657480	-51.95005000
0.00000017	0.87844490	-51.95005000
0.20000016	1.05376500	-51.95005000
0.40000015	0.87844490	-51.95005000
0.60000013	0.52657480	-51.95005000
0.80000012	-0.35125490	-51.95005000
1.00000011	-1.22970000	-51.95005000
1.20000010	-2.28408000	-51.95005000
1.40000009	-2.81127000	-51.95005000
1.60000008	-2.63533500	-51.95005000
1.80000006	-1.58095500	-51.95005000
2.00000005	0.17531990	-51.95005000
2.20000004	2.10814500	-51.95005000
2.40000003	4.04096900	-51.95005000
2.60000002	5.27128500	-51.95005000
2.80000000	5.09534900	-51.95005000
2.99999999	3.51377900	-51.95005000
3.19999998	0.52657480	-51.95005000
3.39999997	-2.81127000	-51.95005000
3.59999996	-5.97379400	-51.90083000
3.79999994	-7.73129900	-51.48868000
3.99999993	-7.73129900	-50.68282000
4.19999992	-5.62254000	-50.27066000
4.39999991	-1.93282500	-50.27066000
4.59999990	2.45940000	-50.68282000
4.79999989	6.50098400	-51.48868000
4.99999987	8.96099900	-51.90083000
5.19999986	9.31225400	-51.99926000
5.39999985	7.20410900	-52.36220000
5.59999984	3.16252500	-52.81126000
5.79999983	-1.58095500	-52.77436000
5.99999981	-5.79847400	-52.81126000
6.19999980	-8.78567900	-52.31299000
6.39999979	-9.31225400	-51.53789000
6.59999978	-7.73129900	-50.68282000
6.79999977	-4.21690500	-50.31988000
6.99999975	0.17531990	-50.68282000
7.19999974	4.21690500	-51.48868000
7.39999973	6.85223900	-51.90083000
7.59999972	7.73129900	-51.95005000
7.79999971	6.50098400	-51.95005000
7.99999970	3.86565000	-51.95005000
8.19999968	0.52657480	-51.95005000
8.39999967	-2.45940000	-51.95005000
8.59999966	-4.56816000	-51.95005000
8.79999965	-5.09534900	-51.95005000
8.99999964	-4.56816000	-51.95005000
9.19999962	-2.81127000	-51.95005000
9.39999961	-0.87844490	-51.95005000
9.59999960	0.87844490	-51.95005000
9.79999959	2.10814500	-51.95005000
9.99999958	2.45940000	-51.95005000
10.19999956	2.10814500	-51.95005000
10.39999955	1.40563500	-51.95005000
10.59999954	0.52657480	-51.95005000
10.79999953	-0.35125490	-51.95005000
10.99999952	-0.87844490	-51.95005000
11.19999951	-1.05376500	-51.95005000
11.39999949	-0.87844490	-51.95005000
11.59999948	-0.70250980	-51.95005000
11.79999947	-0.35125490	-51.95005000
11.99999946	0.00000000	-51.95005000
12.19999945	0.00000000	-51.95005000
12.39999943	0.00000000	-51.95005000
12.59999942	-0.17531990	-51.95005000
12.79999941	-0.17531990	-51.95005000
12.99999940	-0.17531990	-51.95005000
13.19999939	-0.17531990	-51.95005000
13.39999937	-0.17531990	-51.95005000
13.59999936	0.00000000	-51.95005000
13.79999935	0.00000000	-51.95005000
13.99999934	0.00000000	-51.95005000
14.19999933	0.00000000	-51.95005000
14.39999932	0.00000000	-51.95005000
14.59999930	0.00000000	-51.95005000
14.79999929	0.00000000	-51.95005000
14.99999928	0.00000000	-51.95005000
15.19999927	0.00000000	-51.95005000
15.39999926	0.00000000	-51.95005000
15.59999924	0.00000000	-51.95005000
15.79999923	0.00000000	-51.95005000
15.99999922	0.00000000	-51.95005000
16.19999921	0.00000000	-51.95005000
16.39999920	0.00000000	-51.95005000
16.59999919	0.00000000	-51.95005000
16.79999917	0.00000000	-51.95005000
16.99999916	0.00000000	-51.95005000
17.19999915	0.00000000	-51.95005000
17.39999914	0.00000000	-51.95005000
17.59999913	0.00000000	-51.95005000
17.79999911	0.00000000	-51.95005000
17.99999910	0.00000000	-51.95005000
18.19999909	0.00000000	-51.95005000
18.39999908	0.00000000	-51.95005000
18.59999907	0.00000000	-51.95005000
18.79999905	0.00000000	-51.95005000
18.99999904	0.00000000	-51.95005000
19.19999903	0.00000000	-51.95005000
19.39999902	0.00000000	-51.95005000
19.59999901	0.00000000	-51.95005000
19.79999900	0.00000000	-51.95005000
19.99999898	0.00000000	-51.95005000
20.19999897	0.00000000	-51.95005000
20.39999896	0.00000000	-51.95005000
20.59999895	0.00000000	-51.95005000
20.79999894	0.00000000	-51.95005000
20.99999892	0.00000000	-51.95005000
21.19999891	0.00000000	-51.95005000
21.39999890	0.00000000	-51.95005000
21.59999889	0.00000000	-51.95005000
21.79999888	0.00000000	-51.95005000
21.99999886	0.00000000	-51.95005000
22.19999885	0.00000000	-51.95005000
22.39999884	0.00000000	-51.95005000
22.59999883	0.00000000	-51.95005000
22.79999882	0.00000000	-51.99926000
22.99999881	0.00000000	-52.36220000
23.19999879	0.00000000	-52.81126000
23.39999878	0.00000000	-52.82357000
23.59999877	0.00000000	-53.27264000
23.79999876	0.00000000	-53.63558000
23.99999875	0.00000000	-53.63558000
24.19999873	0.00000000	-53.17421000
24.39999872	0.00000000	-51.95005000
24.59999871	0.00000000	-50.68282000
24.79999870	0.00000000	-49.80930000
24.99999869	0.00000000	-48.94808000
25.19999867	0.00000000	-48.58514000
25.39999866	0.00000000	-49.04650000
25.59999865	0.00000000	-50.78125000
25.79999864	0.00000000	-53.68479000
25.99999863	0.00000000	-56.68676000
26.19999862	0.00000000	-59.23966000
26.39999860	0.00000000	-61.32504000
26.59999859	0.00000000	-61.63263000
26.79999858	0.00000000	-59.54109000
26.99999857	0.00000000	-55.26574000
27.19999856	0.00000000	-49.71087000
27.39999854	0.00000000	-43.34399000
27.59999853	0.00000000	-37.53075000
27.79999852	0.00000000	-34.62106000
27.99999851	0.00000000	-35.94365000
28.19999850	0.00000000	-41.45546000
28.39999848	0.00000000	-50.41830000
28.59999847	0.00000000	-61.02362000
28.79999846	0.00000000	-71.56742000
28.99999845	0.00000000	-79.01083000
29.19999844	0.00000000	-80.28419000
29.39999843	0.00000000	-74.78469000
29.59999841	0.00000000	-64.08095000
29.79999840	0.00000000	-49.20029000
29.99999839	0.00000000	-32.74483000
30.19999838	0.00000000	-19.33440000
30.39999837	0.00000000	-12.61073000
30.59999835	0.00000000	-15.20669000
30.79999834	0.00000000	-26.62401000
30.99999833	0.00000000	-44.50664000
31.19999832	0.00000000	-65.65575000
31.39999831	0.00000000	-85.47613000
31.59999829	0.00000000	-98.52976000
31.79999828	0.00000000	-101.48250000
31.99999827	0.00000000	-93.38090000
32.19999826	0.00000000	-75.54749000
32.39999825	0.00000000	-51.39025000
32.59999824	0.00000000	-26.06422000
32.79999822	0.00000000	-5.78863100
32.99999821	0.00000000	4.35531500
33.19999820	0.00000000	2.21456700
33.39999819	0.00000000	-12.25394000
33.59999818	0.00000000	-36.30659000
33.79999816	0.00000000	-64.22859000
33.99999815	0.00000000	-89.25320000
34.19999814	0.00000000	-106.58220000
34.39999813	0.00000000	-111.98330000
34.59999812	0.00000000	-103.16810000
34.79999810	0.00000000	-82.88631000
34.99999809	0.00000000	-56.17618000
35.19999808	0.00000000	-28.25418000
35.39999807	0.00000000	-5.88090500
35.59999806	0.00000000	5.57947800
35.79999805	0.00000000	3.89394600
35.99999803	0.00000000	-10.42077000
36.19999802	0.00000000	-33.65527000
36.39999801	0.00000000	-59.90403000
36.59999800	0.00000000	-83.64911000
36.79999799	0.00000000	-99.70472000
36.99999797	0.00000000	-104.33690000
37.19999796	0.00000000	-96.38902000
37.39999795	0.00000000	-78.29724000
37.59999794	0.00000000	-55.46260000
37.79999793	0.00000000	-33.04010000
37.99999791	0.00000000	-16.12328000
38.19999790	0.00000000	-8.93208600
38.39999789	0.00000000	-12.61073000
38.59999788	0.00000000	-25.65207000
38.79999787	0.00000000	-43.75615000
38.99999786	0.00000000	-62.35236000
39.19999784	0.00000000	-76.77165000
39.39999783	0.00000000	-84.01205000
39.59999782	0.00000000	-83.24310000
39.79999781	0.00000000	-74.83390000
39.99999780	0.00000000	-61.83562000
40.19999778	0.00000000	-47.92076000
40.39999777	0.00000000	-36.96481000
40.59999776	0.00000000	-31.81594000
40.79999775	0.00000000	-32.99089000
40.99999774	0.00000000	-39.21014000
41.19999772	0.00000000	-48.02534000
41.39999771	0.00000000	-56.44070000
41.59999770	0.00000000	-62.40157000
41.79999769	0.00000000	-64.54232000
41.99999768	0.00000000	-62.95521000
42.19999767	0.00000000	-58.77829000
42.39999765	0.00000000	-53.78321000
42.59999764	0.00000000	-49.55708000
42.79999763	0.00000000	-47.41633000
42.99999762	0.00000000	-47.36712000
43.19999761	0.00000000	-48.99729000
43.39999759	0.00000000	-51.43946000
43.59999758	0.00000000	-53.12500000
43.79999757	0.00000000	-53.63558000
43.99999756	0.00000000	-53.63558000
44.19999755	0.00000000	-53.17421000
44.39999753	0.00000000	-51.95005000
44.59999752	0.00000000	-50.78125000
44.79999751	0.00000000	-50.78125000
44.99999750	0.00000000	-52.04847000
45.19999749	0.00000000	-54.09695000
45.39999748	0.00000000	-56.18233000
45.59999746	0.00000000	-57.00049000
45.79999745	0.00000000	-56.53912000
45.99999744	0.00000000	-54.39837000
46.19999743	0.00000000	-50.63361000
46.39999742	0.00000000	-46.90575000
46.59999740	0.00000000	-44.35900000
46.79999739	0.00000000	-43.95300000
46.99999738	0.00000000	-45.63238000
47.19999737	0.00000000	-48.99729000
47.39999736	0.00000000	-53.22342000
47.59999734	0.00000000	-57.04970000
47.79999733	0.00000000	-60.00246000
47.99999732	0.00000000	-61.22662000
48.19999731	0.00000000	-60.00246000
48.39999730	0.00000000	-57.04970000
48.59999729	0.00000000	-53.22342000
48.79999727	0.00000000	-48.99729000
48.99999726	0.00000000	-45.63238000
49.19999725	0.00000000	-43.95300000
49.39999724	0.00000000	-44.30979000
49.59999723	0.00000000	-46.44439000
49.79999721	0.00000000	-49.36023000
49.99999720	0.00000000	-52.76205000
50.19999719	0.00000000	-55.31496000
50.39999718	0.00000000	-57.04970000
50.59999717	0.00000000	-57.91092000
50.79999715	0.00000000	-57.51107000
50.99999714	0.00000000	-56.68676000
51.19999713	0.00000000	-55.36417000
51.39999712	0.00000000	-53.68479000
51.59999711	0.00000000	-51.95005000
51.79999710	0.00000000	-50.27066000
51.99999708	0.00000000	-48.94808000
52.19999707	0.00000000	-48.12377000
52.39999706	0.00000000	-47.72391000
52.59999705	0.00000000	-48.63435000
52.79999704	0.00000000	-50.68282000
52.99999702	0.00000000	-53.22342000
53.19999701	0.00000000	-55.31496000
53.39999700	0.00000000	-56.63754000
53.59999699	0.00000000	-57.09892000
53.79999698	0.00000000	-57.04970000
53.99999696	0.00000000	-56.18233000
54.19999695	0.00000000	-54.04773000
54.39999694	0.00000000	-51.53789000
54.59999693	0.00000000	-48.99729000
54.79999692	0.00000000	-47.36712000
54.99999691	0.00000000	-47.31791000
55.19999689	0.00000000	-48.58514000
55.39999688	0.00000000	-50.73204000
55.59999687	0.00000000	-53.63558000
55.79999686	0.00000000	-56.18233000
55.99999685	0.00000000	-57.46186000
56.19999683	0.00000000	-57.86171000
56.39999682	0.00000000	-56.53912000
56.59999681	0.00000000	-53.68479000
56.79999680	0.00000000	-50.73204000
56.99999679	0.00000000	-48.58514000
57.19999677	0.00000000	-47.31791000
57.39999676	0.00000000	-47.36712000
57.59999675	0.00000000	-49.09572000
57.79999674	0.00000000	-52.41142000
57.99999673	0.00000000	-56.17618000
58.19999672	0.00000000	-58.72908000
58.39999670	0.00000000	-60.05167000
58.59999669	0.00000000	-60.00246000
58.79999668	0.00000000	-58.26771000
58.99999667	0.00000000	-54.90280000
59.19999666	0.00000000	-50.73204000
59.39999664	0.00000000	-47.31791000
59.59999663	0.00000000	-45.22022000
59.79999662	0.00000000	-44.82037000
59.99999661	0.00000000	-46.90575000
60.19999660	0.00000000	-50.27066000
60.39999658	0.00000000	-54.14616000
60.59999657	0.00000000	-58.31693000
60.79999656	0.00000000	-61.22662000
60.99999655	0.00000000	-61.68184000
61.19999654	0.00000000	-60.00246000
61.39999653	0.00000000	-56.63754000
61.59999651	0.00000000	-52.41142000
61.79999650	0.00000000	-48.58514000
61.99999649	0.00000000	-45.58317000
62.19999648	0.00000000	-43.95300000
62.39999647	0.00000000	-44.35900000
62.59999645	0.00000000	-46.85654000
62.79999644	0.00000000	-50.22145000
62.99999643	0.00000000	-53.63558000
63.19999642	0.00000000	-56.58833000
63.39999641	0.00000000	-58.26771000
63.59999639	0.00000000	-58.36614000
63.79999638	0.00000000	-57.51107000
63.99999637	0.00000000	-56.23154000
64.19999636	0.00000000	-54.09695000
64.39999635	0.00000000	-51.99926000
64.59999634	0.00000000	-50.22145000
64.79999632	0.00000000	-48.53592000
64.99999631	0.00000000	-47.26870000
65.19999630	0.00000000	-46.80733000
65.39999629	0.00000000	-46.80733000
65.59999628	0.00000000	-47.31791000
65.79999626	0.00000000	-49.04650000
65.99999625	0.00000000	-51.99926000
66.19999624	0.00000000	-55.36417000
66.39999623	0.00000000	-58.36614000
66.59999622	0.00000000	-60.46383000
66.79999620	0.00000000	-61.32504000
66.99999619	0.00000000	-60.41461000
67.19999618	0.00000000	-57.86171000
67.39999617	0.00000000	-53.58636000
67.59999616	0.00000000	-48.58514000
67.79999615	0.00000000	-44.35900000
67.99999613	0.00000000	-42.21825000
68.19999612	0.00000000	-42.16904000
68.39999611	0.00000000	-43.95300000
68.59999610	0.00000000	-47.77313000
68.79999609	0.00000000	-53.27264000
68.99999607	0.00000000	-58.72908000
69.19999606	0.00000000	-63.00442000
69.39999605	0.00000000	-65.09595000
69.59999604	0.00000000	-64.68996000
69.79999603	0.00000000	-61.68184000
69.99999601	0.00000000	-56.63754000
70.19999600	0.00000000	-50.73204000
70.39999599	0.00000000	-45.63238000
70.59999598	0.00000000	-42.21825000
70.79999597	0.00000000	-40.94488000
70.99999596	0.00000000	-42.21825000
71.19999594	0.00000000	-45.63238000
71.39999593	0.00000000	-50.68282000
71.59999592	0.00000000	-56.18233000
71.79999591	0.00000000	-60.46383000
71.99999590	0.00000000	-63.41658000
72.19999588	0.00000000	-64.22859000
72.39999587	0.00000000	-62.14320000
72.59999586	0.00000000	-58.36614000
72.79999585	0.00000000	-53.68479000
72.99999584	0.00000000	-48.99729000
73.19999582	0.00000000	-45.17101000
73.39999581	0.00000000	-42.67347000
73.59999580	0.00000000	-42.72268000
73.79999579	0.00000000	-45.63238000
73.99999578	0.00000000	-50.22145000
74.19999577	0.00000000	-54.90280000
74.39999575	0.00000000	-58.77829000
74.59999574	0.00000000	-61.73105000
74.79999573	0.00000000	-62.95521000
74.99999572	0.00000000	-61.68184000
75.19999571	0.00000000	-58.31693000
75.39999569	0.00000000	-53.63558000
75.59999568	0.00000000	-48.58514000
75.79999567	0.00000000	-44.40821000
75.99999566	0.00000000	-42.72884000
76.19999565	0.00000000	-43.95300000
76.39999563	0.00000000	-47.36712000
76.59999562	0.00000000	-52.46062000
76.79999561	0.00000000	-58.26771000
76.99999560	0.00000000	-62.50000000
77.19999559	0.00000000	-63.82873000
77.39999558	0.00000000	-62.96136000
77.59999556	0.00000000	-59.49803000
77.79999555	0.00000000	-53.63558000
77.99999554	0.00000000	-47.31791000
78.19999553	0.00000000	-42.21825000
78.39999552	0.00000000	-39.25935000
78.59999550	0.00000000	-39.30856000
78.79999549	0.00000000	-42.72268000
78.99999548	0.00000000	-48.99729000
79.19999547	0.00000000	-56.17618000
79.39999546	0.00000000	-62.14320000
79.59999544	0.00000000	-66.36934000
79.79999543	0.00000000	-67.54428000
79.99999542	0.00000000	-64.59153000
80.19999541	0.00000000	-58.31693000
80.39999540	0.00000000	-50.68282000
80.59999539	0.00000000	-43.49163000
80.79999537	0.00000000	-37.99213000
80.99999536	0.00000000	-35.89444000
81.19999535	0.00000000	-37.57997000
81.39999534	0.00000000	-42.62426000
81.59999533	0.00000000	-49.80930000
81.79999531	0.00000000	-57.04970000
81.99999530	0.00000000	-63.41658000
82.19999529	0.00000000	-67.64272000
82.39999528	0.00000000	-68.46087000
82.59999527	0.00000000	-65.96333000
82.79999525	0.00000000	-60.41461000
82.99999524	0.00000000	-53.27264000
83.19999523	0.00000000	-46.04453000
83.39999522	0.00000000	-40.53272000
83.59999521	0.00000000	-37.53075000
83.79999520	0.00000000	-37.57997000
83.99999518	0.00000000	-40.94488000
84.19999517	0.00000000	-46.85654000
84.39999516	0.00000000	-53.63558000
84.59999515	0.00000000	-60.05167000
84.79999514	0.00000000	-65.09595000
84.99999512	0.00000000	-67.69193000
85.19999511	0.00000000	-67.24286000
85.39999510	0.00000000	-64.27780000
85.59999509	0.00000000	-58.77829000
85.79999508	0.00000000	-52.46062000
85.99999506	0.00000000	-46.85654000
86.19999505	0.00000000	-42.16904000
86.39999504	0.00000000	-39.25935000
86.59999503	0.00000000	-39.21014000
86.79999502	0.00000000	-41.75689000
86.99999501	0.00000000	-46.08759000
87.19999499	0.00000000	-52.46062000
87.39999498	0.00000000	-59.54109000
87.59999497	0.00000000	-64.64074000
87.79999496	0.00000000	-66.83070000
87.99999495	0.00000000	-66.47392000
88.19999493	0.00000000	-63.82873000
88.39999492	0.00000000	-59.18430000
88.59999491	0.00000000	-52.82357000
88.79999490	0.00000000	-46.95497000
88.99999489	0.00000000	-42.63041000
89.19999487	0.00000000	-40.53888000
89.39999486	0.00000000	-40.94488000
89.59999485	0.00000000	-43.95300000
89.79999484	0.00000000	-48.99729000
89.99999483	0.00000000	-54.90280000
90.19999482	0.00000000	-60.00246000
90.39999480	0.00000000	-63.41658000
90.59999479	0.00000000	-64.68996000
90.79999478	0.00000000	-63.46579000
90.99999477	0.00000000	-60.51304000
91.19999476	0.00000000	-56.63754000
91.39999474	0.00000000	-51.95005000
91.59999473	0.00000000	-47.36712000
91.79999472	0.00000000	-44.40821000
91.99999471	0.00000000	-43.95300000
92.19999470	0.00000000	-45.58317000
92.39999468	0.00000000	-48.53592000
92.59999467	0.00000000	-51.90083000
92.79999466	0.00000000	-54.90280000
92.99999465	0.00000000	-57.04970000
93.19999464	0.00000000	-58.31693000
93.39999463	0.00000000	-58.31693000
93.59999461	0.00000000	-57.09892000
93.79999460	0.00000000	-55.41338000
93.99999459	0.00000000	-53.68479000
94.19999458	0.00000000	-51.95005000
94.39999457	0.00000000	-50.31988000
94.59999455	0.00000000	-49.45866000
94.79999454	0.00000000	-49.80930000
94.99999453	0.00000000	-50.22145000
95.19999452	0.00000000	-50.73204000
95.39999451	0.00000000	-51.95005000
95.59999449	0.00000000	-53.17421000
95.79999448	0.00000000	-53.63558000
95.99999447	0.00000000	-53.68479000
96.19999446	0.00000000	-53.68479000
96.39999445	0.00000000	-53.68479000
96.59999444	0.00000000	-53.68479000
96.79999442	0.00000000	-53.68479000
96.99999441	0.00000000	-53.63558000
97.19999440	0.00000000	-53.22342000
97.39999439	0.00000000	-52.41142000
97.59999438	0.00000000	-51.99926000
97.79999436	0.00000000	-51.90083000
97.99999435	0.00000000	-51.53789000
98.19999434	0.00000000	-51.13803000
98.39999433	0.00000000	-51.53789000
98.59999432	0.00000000	-51.95005000
98.79999430	0.00000000	-52.41142000
98.99999429	0.00000000	-53.27264000
99.19999428	0.00000000	-54.09695000
99.39999427	0.00000000	-54.95201000
99.59999426	0.00000000	-55.31496000
99.79999425	0.00000000	-54.95201000
99.99999423	0.00000000	-54.14616000
100.19999422	0.00000000	-53.68479000
100.39999421	0.00000000	-53.17421000
100.59999420	0.00000000	-51.99926000
100.79999419	0.00000000	-51.18725000
100.99999417	0.00000000	-51.48868000
101.19999416	0.00000000	-51.48868000
101.39999415	0.00000000	-51.23646000
101.59999414	0.00000000	-52.46062000
101.79999413	0.00000000	-54.44759000
101.99999411	0.00000000	-55.31496000
102.19999410	0.00000000	-55.41338000
102.39999409	0.00000000	-55.41338000
102.59999408	0.00000000	-55.36417000
102.79999407	0.00000000	-54.95201000
102.99999406	0.00000000	-54.09695000
103.19999404	0.00000000	-53.27264000
103.39999403	0.00000000	-52.36220000
103.59999402	0.00000000	-51.58710000
103.79999401	0.00000000	-51.13803000
103.99999400	0.00000000	-51.58710000
104.19999398	0.00000000	-52.41142000
104.39999397	0.00000000	-53.68479000
104.59999396	0.00000000	-54.90280000
104.79999395	0.00000000	-55.36417000
104.99999394	0.00000000	-55.41338000
105.19999392	0.00000000	-55.36417000
105.39999391	0.00000000	-54.90280000
105.59999390	0.00000000	-53.68479000
105.79999389	0.00000000	-52.41142000
105.99999388	0.00000000	-51.53789000
