Time	Channel A	Channel B
(us)	(V)	(mV)

-4.59999956	0.00000000	57.14812000
-4.39999957	0.00000000	57.14812000
-4.19999958	0.00000000	57.14812000
-3.99999959	0.00000000	57.14812000
-3.79999960	0.00000000	57.14812000
-3.59999962	0.00000000	57.19734000
-3.39999963	0.00000000	57.60949000
-3.19999964	0.00000000	58.41535000
-2.99999965	0.00000000	58.77829000
-2.79999966	0.00000000	58.41535000
-2.59999968	0.00000000	57.60949000
-2.39999969	0.00000000	57.19734000
-2.19999970	0.00000000	57.14812000
-1.99999971	0.00000000	57.14812000
-1.79999972	0.00000000	57.14812000
-1.59999973	0.00000000	57.14812000
-1.39999975	0.00000000	57.14812000
-1.19999976	0.00000000	57.14812000
-0.99999977	0.00000000	57.14812000
-0.79999978	0.00000000	57.14812000
-0.59999979	0.00000000	57.14812000
-0.39999981	0.35125490	57.14812000
-0.19999982	0.70250980	57.14812000
0.00000017	0.87844490	57.14812000
0.20000016	1.05376500	57.14812000
0.40000015	0.70250980	57.14812000
0.60000013	0.17531990	57.14812000
0.80000012	-0.52657480	57.14812000
1.00000011	-1.58095500	57.14812000
1.20000010	-2.45940000	57.14812000
1.40000009	-2.81127000	57.19734000
1.60000008	-2.45940000	57.56028000
1.80000006	-1.22970000	57.96013000
2.00000005	0.70250980	57.56028000
2.20000004	2.81127000	57.19734000
2.40000003	4.56816000	57.14812000
2.60000002	5.27128500	57.14812000
2.80000000	4.74409400	57.09892000
2.99999999	2.81127000	56.73597000
3.19999998	-0.35125490	56.33612000
3.39999997	-3.86565000	56.73597000
3.59999996	-6.67691900	57.14812000
3.79999994	-7.90661900	57.60949000
3.99999993	-7.37942900	58.36614000
4.19999992	-4.74409400	58.36614000
4.39999991	-0.70250980	57.60949000
4.59999990	3.68971500	57.19734000
4.79999989	7.37942900	57.14812000
4.99999987	9.31225400	57.09892000
5.19999986	8.96099900	56.68676000
5.39999985	6.32566500	55.87475000
5.59999984	1.93282500	55.46260000
5.79999983	-2.81127000	55.46260000
5.99999981	-6.85223900	55.87475000
6.19999980	-9.13693400	56.68676000
6.39999979	-9.13693400	57.09892000
6.59999978	-6.85223900	57.14812000
6.79999977	-2.98659000	57.14812000
6.99999975	1.40563500	57.14812000
7.19999974	5.09534900	57.09892000
7.39999973	7.37942900	56.68676000
7.59999972	7.55536400	55.87475000
7.79999971	5.97379400	55.51181000
7.99999970	2.98659000	55.87475000
8.19999968	-0.35125490	56.68676000
8.39999967	-3.16252500	57.09892000
8.59999966	-4.74409400	57.14812000
8.79999965	-5.09534900	57.14812000
8.99999964	-4.21690500	57.14812000
9.19999962	-2.28408000	57.14812000
9.39999961	-0.35125490	57.14812000
9.59999960	1.22970000	57.14812000
9.79999959	2.28408000	57.14812000
9.99999958	2.45940000	57.14812000
10.19999956	1.93282500	57.14812000
10.39999955	1.05376500	57.14812000
10.59999954	0.17531990	57.14812000
10.79999953	-0.52657480	57.14812000
10.99999952	-0.87844490	57.14812000
11.19999951	-0.87844490	57.14812000
11.39999949	-0.70250980	57.19734000
11.59999948	-0.52657480	57.56028000
11.79999947	-0.17531990	57.96013000
11.99999946	0.00000000	57.56028000
12.19999945	0.00000000	57.19734000
12.39999943	-0.17531990	57.14812000
12.59999942	0.00000000	57.14812000
12.79999941	-0.17531990	57.14812000
12.99999940	-0.17531990	57.14812000
13.19999939	-0.17531990	57.14812000
13.39999937	0.00000000	57.19734000
13.59999936	0.00000000	57.56028000
13.79999935	0.00000000	57.96013000
13.99999934	0.00000000	57.56028000
14.19999933	0.00000000	57.19734000
14.39999932	0.00000000	57.14812000
14.59999930	0.00000000	57.14812000
14.79999929	0.00000000	57.14812000
14.99999928	0.00000000	57.14812000
15.19999927	0.00000000	57.14812000
15.39999926	0.00000000	57.14812000
15.59999924	0.00000000	57.14812000
15.79999923	0.00000000	57.14812000
15.99999922	0.00000000	57.14812000
16.19999921	0.00000000	57.14812000
16.39999920	0.00000000	57.19734000
16.59999919	0.00000000	57.56028000
16.79999917	0.00000000	57.96013000
16.99999916	0.00000000	57.56028000
17.19999915	0.00000000	57.19734000
17.39999914	0.00000000	57.14812000
17.59999913	0.00000000	57.14812000
17.79999911	0.00000000	57.14812000
17.99999910	0.00000000	57.14812000
18.19999909	0.00000000	57.19734000
18.39999908	0.00000000	57.56028000
18.59999907	0.00000000	57.96013000
18.79999905	0.00000000	57.56028000
18.99999904	0.00000000	57.19734000
19.19999903	0.00000000	57.14812000
19.39999902	0.00000000	57.14812000
19.59999901	0.00000000	57.09892000
19.79999900	0.00000000	56.68676000
19.99999898	0.00000000	55.87475000
20.19999897	0.00000000	55.51181000
20.39999896	0.00000000	55.87475000
20.59999895	0.00000000	56.68676000
20.79999894	0.00000000	57.09892000
20.99999892	0.00000000	57.14812000
21.19999891	0.00000000	57.14812000
21.39999890	0.00000000	57.14812000
21.59999889	0.00000000	57.14812000
21.79999888	0.00000000	57.14812000
21.99999886	0.00000000	57.14812000
22.19999885	0.00000000	57.14812000
22.39999884	0.00000000	57.14812000
22.59999883	0.00000000	57.14812000
22.79999882	0.00000000	57.14812000
22.99999881	0.00000000	57.09892000
23.19999879	0.00000000	56.68676000
23.39999878	0.00000000	55.87475000
23.59999877	0.00000000	55.46260000
23.79999876	0.00000000	55.46260000
23.99999875	0.00000000	55.87475000
24.19999873	0.00000000	56.73597000
24.39999872	0.00000000	57.60949000
24.59999871	0.00000000	58.87672000
24.79999870	0.00000000	60.10088000
24.99999869	0.00000000	60.56225000
25.19999867	0.00000000	60.56225000
25.39999866	0.00000000	60.05167000
25.59999865	0.00000000	58.31693000
25.79999864	0.00000000	55.41338000
25.99999863	0.00000000	52.41142000
26.19999862	0.00000000	49.90772000
26.39999860	0.00000000	48.23449000
26.59999859	0.00000000	48.73277000
26.79999858	0.00000000	51.28568000
26.99999857	0.00000000	56.02239000
27.19999856	0.00000000	62.34005000
27.39999854	0.00000000	68.55930000
27.59999853	0.00000000	72.47785000
27.79999852	0.00000000	73.30831000
27.99999851	0.00000000	71.91806000
28.19999850	0.00000000	66.22169000
28.39999848	0.00000000	56.58833000
28.59999847	0.00000000	45.58317000
28.79999846	0.00000000	35.89444000
28.99999845	0.00000000	30.03814000
29.19999844	0.00000000	30.13656000
29.39999843	0.00000000	36.96481000
29.59999841	0.00000000	49.70472000
29.79999840	0.00000000	65.75418000
29.99999839	0.00000000	81.39764000
30.19999838	0.00000000	92.76574000
30.39999837	0.00000000	96.94267000
30.59999835	0.00000000	92.20595000
30.79999834	0.00000000	79.01083000
30.99999833	0.00000000	59.54109000
31.19999832	0.00000000	37.99213000
31.39999831	0.00000000	19.79577000
31.59999829	0.00000000	8.83981200
31.79999828	0.00000000	8.12622900
31.99999827	0.00000000	19.18061000
32.19999826	0.00000000	39.86835000
32.39999825	0.00000000	65.29281000
32.59999824	0.00000000	89.81299000
32.79999822	0.00000000	107.95400000
32.99999821	0.00000000	114.68380000
33.19999820	0.00000000	108.36610000
33.39999819	0.00000000	90.57578000
33.59999818	0.00000000	65.14517000
33.79999816	0.00000000	37.62918000
33.99999815	0.00000000	13.93332000
34.19999814	0.00000000	-0.38139760
34.39999813	0.00000000	-1.65477300
34.59999812	0.00000000	10.61762000
34.79999810	0.00000000	33.40305000
34.99999809	0.00000000	61.37426000
35.19999808	0.00000000	88.03519000
35.39999807	0.00000000	107.90480000
35.59999806	0.00000000	115.90180000
35.79999805	0.00000000	110.09470000
35.99999803	0.00000000	92.76574000
36.19999802	0.00000000	68.20251000
36.39999801	0.00000000	41.55389000
36.59999800	0.00000000	19.18061000
36.79999799	0.00000000	6.44069800
36.99999797	0.00000000	5.97933100
37.19999796	0.00000000	17.29823000
37.39999795	0.00000000	37.16781000
37.59999794	0.00000000	60.41461000
37.79999793	0.00000000	81.96358000
37.99999791	0.00000000	96.33981000
38.19999790	0.00000000	100.21530000
38.39999789	0.00000000	93.53469000
38.59999788	0.00000000	78.39567000
38.79999787	0.00000000	59.48573000
38.99999786	0.00000000	42.11368000
39.19999784	0.00000000	30.18578000
39.39999783	0.00000000	25.49828000
39.59999782	0.00000000	28.86319000
39.79999781	0.00000000	39.30856000
39.99999780	0.00000000	53.12500000
40.19999778	0.00000000	65.81570000
40.39999777	0.00000000	74.32948000
40.59999776	0.00000000	77.38065000
40.79999775	0.00000000	74.88311000
40.99999774	0.00000000	68.20251000
41.19999772	0.00000000	59.33809000
41.39999771	0.00000000	51.02731000
41.59999770	0.00000000	45.89075000
41.79999769	0.00000000	45.36786000
41.99999768	0.00000000	47.77313000
42.19999767	0.00000000	52.04847000
42.39999765	0.00000000	57.04970000
42.59999764	0.00000000	61.27583000
42.79999763	0.00000000	63.36737000
42.99999762	0.00000000	63.05979000
43.19999761	0.00000000	60.97440000
43.39999759	0.00000000	58.51377000
43.59999758	0.00000000	56.37918000
43.79999757	0.00000000	55.61023000
43.99999756	0.00000000	56.32997000
44.19999755	0.00000000	58.00935000
44.39999753	0.00000000	59.19045000
44.59999752	0.00000000	59.63951000
44.79999751	0.00000000	58.77829000
44.99999750	0.00000000	57.09892000
45.19999749	0.00000000	55.00122000
45.39999748	0.00000000	52.96506000
45.59999746	0.00000000	52.55905000
45.79999745	0.00000000	53.83243000
45.99999744	0.00000000	56.38533000
46.19999743	0.00000000	60.15009000
46.39999742	0.00000000	63.46579000
46.59999740	0.00000000	65.19439000
46.79999739	0.00000000	65.19439000
46.99999738	0.00000000	63.46579000
47.19999737	0.00000000	60.05167000
47.39999736	0.00000000	55.46260000
47.59999734	0.00000000	51.28568000
47.79999733	0.00000000	49.14493000
47.99999732	0.00000000	49.09572000
48.19999731	0.00000000	50.83046000
48.39999730	0.00000000	54.19537000
48.59999729	0.00000000	58.41535000
48.79999727	0.00000000	62.19242000
48.99999726	0.00000000	64.78838000
49.19999725	0.00000000	65.60654000
49.39999724	0.00000000	64.83759000
49.59999723	0.00000000	62.65378000
49.79999721	0.00000000	59.73794000
49.99999720	0.00000000	56.33612000
50.19999719	0.00000000	53.83243000
50.39999718	0.00000000	52.46062000
50.59999717	0.00000000	52.04847000
50.79999715	0.00000000	52.41142000
50.99999714	0.00000000	53.32185000
51.19999713	0.00000000	54.60138000
51.39999712	0.00000000	56.73597000
51.59999711	0.00000000	58.82750000
51.79999710	0.00000000	60.56225000
51.99999708	0.00000000	61.78026000
52.19999707	0.00000000	61.82948000
52.39999706	0.00000000	61.02362000
52.59999705	0.00000000	60.15009000
52.79999704	0.00000000	58.77829000
52.99999702	0.00000000	56.68676000
53.19999701	0.00000000	54.19537000
53.39999700	0.00000000	52.50984000
53.59999699	0.00000000	52.04847000
53.79999698	0.00000000	52.50984000
53.99999696	0.00000000	54.19537000
54.19999695	0.00000000	56.68676000
54.39999694	0.00000000	58.82750000
54.59999693	0.00000000	60.56225000
54.79999692	0.00000000	61.78026000
54.99999691	0.00000000	61.78026000
55.19999689	0.00000000	60.51304000
55.39999688	0.00000000	58.36614000
55.59999687	0.00000000	55.46260000
55.79999686	0.00000000	52.96506000
55.99999685	0.00000000	52.09768000
56.19999683	0.00000000	52.46062000
56.39999682	0.00000000	53.78321000
56.59999681	0.00000000	55.97318000
56.79999680	0.00000000	59.28888000
56.99999679	0.00000000	62.54921000
57.19999677	0.00000000	63.41658000
57.39999676	0.00000000	62.24163000
57.59999675	0.00000000	60.10088000
57.79999674	0.00000000	57.09892000
57.99999673	0.00000000	53.78321000
58.19999672	0.00000000	51.23646000
58.39999670	0.00000000	50.41830000
58.59999669	0.00000000	51.23646000
58.79999668	0.00000000	53.83243000
58.99999667	0.00000000	57.56028000
59.19999666	0.00000000	61.37426000
59.39999664	0.00000000	63.97637000
59.59999663	0.00000000	65.65575000
59.79999662	0.00000000	65.96333000
59.99999661	0.00000000	63.46579000
60.19999660	0.00000000	59.28888000
60.39999658	0.00000000	55.05044000
60.59999657	0.00000000	51.23646000
60.79999656	0.00000000	49.14493000
60.99999655	0.00000000	49.14493000
61.19999654	0.00000000	51.23646000
61.39999653	0.00000000	55.05044000
61.59999651	0.00000000	59.23966000
61.79999650	0.00000000	63.10285000
61.99999649	0.00000000	65.60654000
62.19999648	0.00000000	66.46776000
62.39999647	0.00000000	65.19439000
62.59999645	0.00000000	62.29084000
62.79999644	0.00000000	58.92593000
62.99999643	0.00000000	55.92396000
63.19999642	0.00000000	53.78321000
63.39999641	0.00000000	52.46062000
63.59999639	0.00000000	52.04847000
63.79999638	0.00000000	52.50984000
63.99999637	0.00000000	54.19537000
64.19999636	0.00000000	56.68676000
64.39999635	0.00000000	58.77829000
64.59999634	0.00000000	60.15009000
64.79999632	0.00000000	61.07283000
64.99999631	0.00000000	62.34005000
65.19999630	0.00000000	63.51500000
65.39999629	0.00000000	63.51500000
65.59999628	0.00000000	62.24163000
65.79999626	0.00000000	60.15009000
65.99999625	0.00000000	57.56028000
66.19999624	0.00000000	54.95201000
66.39999623	0.00000000	51.99926000
66.59999622	0.00000000	49.55093000
66.79999620	0.00000000	49.09572000
66.99999619	0.00000000	50.36909000
67.19999618	0.00000000	52.92200000
67.39999617	0.00000000	56.78519000
67.59999616	0.00000000	60.97440000
67.79999615	0.00000000	64.83759000
67.99999613	0.00000000	67.29208000
68.19999612	0.00000000	67.69193000
68.39999611	0.00000000	65.14517000
68.59999610	0.00000000	60.56225000
68.79999609	0.00000000	55.41338000
68.99999607	0.00000000	50.31988000
69.19999606	0.00000000	46.14296000
69.39999605	0.00000000	44.45743000
69.59999604	0.00000000	45.68159000
69.79999603	0.00000000	49.09572000
69.99999601	0.00000000	54.19537000
70.19999600	0.00000000	60.10088000
70.39999599	0.00000000	65.19439000
70.59999598	0.00000000	68.60851000
70.79999597	0.00000000	69.83267000
70.99999596	0.00000000	68.15330000
71.19999594	0.00000000	63.92716000
71.39999593	0.00000000	58.46457000
71.59999592	0.00000000	52.91584000
71.79999591	0.00000000	48.68356000
71.99999590	0.00000000	46.13681000
72.19999588	0.00000000	46.18602000
72.39999587	0.00000000	49.09572000
72.59999586	0.00000000	53.73400000
72.79999585	0.00000000	58.82750000
72.99999584	0.00000000	63.51500000
73.19999582	0.00000000	66.92913000
73.39999581	0.00000000	68.60851000
73.59999580	0.00000000	68.15330000
73.79999579	0.00000000	65.19439000
73.99999578	0.00000000	60.56225000
74.19999577	0.00000000	55.51181000
74.39999575	0.00000000	51.23646000
74.59999574	0.00000000	48.68356000
74.79999573	0.00000000	47.87155000
74.99999572	0.00000000	49.60630000
75.19999571	0.00000000	53.78321000
75.39999569	0.00000000	58.82750000
75.59999568	0.00000000	63.51500000
75.79999567	0.00000000	66.87991000
75.99999566	0.00000000	68.15330000
76.19999565	0.00000000	66.83070000
76.39999563	0.00000000	63.05979000
76.59999562	0.00000000	57.56028000
76.79999561	0.00000000	52.09768000
76.99999560	0.00000000	47.87155000
77.19999559	0.00000000	46.24139000
77.39999558	0.00000000	47.87155000
77.59999556	0.00000000	52.09768000
77.79999555	0.00000000	57.60949000
77.99999554	0.00000000	63.56421000
78.19999553	0.00000000	68.55930000
78.39999552	0.00000000	71.05684000
78.59999550	0.00000000	69.78346000
78.79999549	0.00000000	65.19439000
78.99999548	0.00000000	58.82750000
79.19999547	0.00000000	52.04847000
79.39999546	0.00000000	46.13681000
79.59999544	0.00000000	42.77190000
79.79999543	0.00000000	42.77190000
79.99999542	0.00000000	46.18602000
80.19999541	0.00000000	52.55905000
80.39999540	0.00000000	60.56225000
80.59999539	0.00000000	68.15330000
80.79999537	0.00000000	73.20374000
80.99999536	0.00000000	74.52017000
81.19999535	0.00000000	71.97957000
81.39999534	0.00000000	66.46776000
81.59999533	0.00000000	58.82750000
81.79999531	0.00000000	50.83046000
81.99999530	0.00000000	44.45743000
82.19999529	0.00000000	41.04330000
82.39999528	0.00000000	41.04330000
82.59999527	0.00000000	44.45743000
82.79999525	0.00000000	50.78125000
82.99999524	0.00000000	58.41535000
83.19999523	0.00000000	65.60654000
83.39999522	0.00000000	71.10605000
83.59999521	0.00000000	73.24680000
83.79999520	0.00000000	72.02264000
83.99999518	0.00000000	68.20251000
84.19999517	0.00000000	62.24163000
84.39999516	0.00000000	55.46260000
84.59999515	0.00000000	49.09572000
84.79999514	0.00000000	44.40821000
84.99999512	0.00000000	42.31668000
85.19999511	0.00000000	43.13484000
85.39999510	0.00000000	46.95497000
85.59999509	0.00000000	52.46062000
85.79999508	0.00000000	58.87672000
85.99999506	0.00000000	65.19439000
86.19999505	0.00000000	69.88188000
86.39999504	0.00000000	72.02264000
86.59999503	0.00000000	71.56742000
86.79999502	0.00000000	68.15330000
86.99999501	0.00000000	62.24163000
87.19999499	0.00000000	55.51181000
87.39999498	0.00000000	49.50172000
87.59999497	0.00000000	45.26944000
87.79999496	0.00000000	43.13484000
87.99999495	0.00000000	44.05143000
88.19999493	0.00000000	47.82234000
88.39999492	0.00000000	53.73400000
88.59999491	0.00000000	60.10088000
88.79999490	0.00000000	65.65575000
88.99999489	0.00000000	69.88188000
89.19999487	0.00000000	71.51820000
89.39999486	0.00000000	69.88188000
89.59999485	0.00000000	65.70497000
89.79999484	0.00000000	60.61147000
89.99999483	0.00000000	55.46260000
90.19999482	0.00000000	50.78125000
90.39999480	0.00000000	47.46555000
90.59999479	0.00000000	46.59818000
90.79999478	0.00000000	48.68356000
90.99999477	0.00000000	52.41142000
91.19999476	0.00000000	56.73597000
91.39999474	0.00000000	60.97440000
91.59999473	0.00000000	64.78838000
91.79999472	0.00000000	66.87991000
91.99999471	0.00000000	66.92913000
92.19999470	0.00000000	65.24360000
92.39999468	0.00000000	62.29084000
92.59999467	0.00000000	58.87672000
92.79999466	0.00000000	55.51181000
92.99999465	0.00000000	52.96506000
93.19999464	0.00000000	52.09768000
93.39999463	0.00000000	52.50984000
93.59999461	0.00000000	54.19537000
93.79999460	0.00000000	56.68676000
93.99999459	0.00000000	58.77829000
94.19999458	0.00000000	60.10088000
94.39999457	0.00000000	60.56225000
94.59999455	0.00000000	60.61147000
94.79999454	0.00000000	60.56225000
94.99999453	0.00000000	60.15009000
95.19999452	0.00000000	59.28888000
95.39999451	0.00000000	58.46457000
95.59999449	0.00000000	57.60949000
95.79999448	0.00000000	57.19734000
95.99999447	0.00000000	57.14812000
96.19999446	0.00000000	57.14812000
96.39999445	0.00000000	57.14812000
96.59999444	0.00000000	57.14812000
96.79999442	0.00000000	57.14812000
96.99999441	0.00000000	57.14812000
97.19999440	0.00000000	57.19734000
97.39999439	0.00000000	57.60949000
97.59999438	0.00000000	58.41535000
97.79999436	0.00000000	58.82750000
97.99999435	0.00000000	58.87672000
98.19999434	0.00000000	58.87672000
98.39999433	0.00000000	58.82750000
98.59999432	0.00000000	58.41535000
98.79999430	0.00000000	57.56028000
98.99999429	0.00000000	56.73597000
99.19999428	0.00000000	55.87475000
99.39999427	0.00000000	55.46260000
99.59999426	0.00000000	55.41338000
99.79999425	0.00000000	55.46260000
99.99999423	0.00000000	55.92396000
100.19999422	0.00000000	57.14812000
100.39999421	0.00000000	58.36614000
100.59999420	0.00000000	58.82750000
100.79999419	0.00000000	58.92593000
100.99999417	0.00000000	59.28888000
101.19999416	0.00000000	59.63951000
101.39999415	0.00000000	58.82750000
101.59999414	0.00000000	57.60949000
101.79999413	0.00000000	56.73597000
101.99999411	0.00000000	55.87475000
102.19999410	0.00000000	55.46260000
102.39999409	0.00000000	55.46260000
102.59999408	0.00000000	55.87475000
102.79999407	0.00000000	56.73597000
102.99999406	0.00000000	57.56028000
103.19999404	0.00000000	58.46457000
103.39999403	0.00000000	59.28888000
103.59999402	0.00000000	60.10088000
103.79999401	0.00000000	60.10088000
103.99999400	0.00000000	59.28888000
104.19999398	0.00000000	58.46457000
104.39999397	0.00000000	57.56028000
104.59999396	0.00000000	56.73597000
104.79999395	0.00000000	55.87475000
104.99999394	0.00000000	55.46260000
105.19999392	0.00000000	55.46260000
105.39999391	0.00000000	55.92396000
105.59999390	0.00000000	57.19734000
105.79999389	0.00000000	58.82750000
105.99999388	0.00000000	60.10088000
106.19999387	0.00000000	60.56225000
106.39999385	0.00000000	60.56225000
106.59999384	0.00000000	60.05167000
106.79999383	0.00000000	58.41535000
106.99999382	0.00000000	56.37918000
107.19999381	0.00000000	55.46260000
107.39999379	0.00000000	55.00122000
107.59999378	0.00000000	54.65059000
107.79999377	0.00000000	55.51181000
107.99999376	0.00000000	57.09892000
108.19999375	0.00000000	58.41535000
108.39999374	0.00000000	59.33809000
108.59999372	0.00000000	60.61147000
108.79999371	0.00000000	61.78026000
108.99999370	0.00000000	61.78026000
