Time	Channel A	Channel B
(us)	(V)	(mV)

-4.59999956	0.00000000	-38.09670000
-4.39999957	0.00000000	-38.09670000
-4.19999958	0.00000000	-38.09670000
-3.99999959	0.00000000	-38.09670000
-3.79999960	0.00000000	-38.09670000
-3.59999962	0.00000000	-38.09670000
-3.39999963	0.00000000	-38.09670000
-3.19999964	0.00000000	-38.09670000
-2.99999965	0.00000000	-38.09670000
-2.79999966	0.00000000	-38.09670000
-2.59999968	0.00000000	-38.09670000
-2.39999969	0.00000000	-38.09670000
-2.19999970	0.00000000	-38.09670000
-1.99999971	0.00000000	-38.04749000
-1.79999972	0.00000000	-37.68455000
-1.59999973	0.00000000	-37.28469000
-1.39999975	0.00000000	-37.68455000
-1.19999976	0.00000000	-38.04749000
-0.99999977	0.00000000	-38.04749000
-0.79999978	0.00000000	-37.68455000
-0.59999979	0.00000000	-37.28469000
-0.39999981	0.17531990	-37.68455000
-0.19999982	0.52657480	-37.99828000
0.00000017	0.87844490	-37.68455000
0.20000016	1.05376500	-37.28469000
0.40000015	0.87844490	-37.68455000
0.60000013	0.52657480	-38.04749000
0.80000012	-0.17531990	-38.04749000
1.00000011	-1.22970000	-37.63533000
1.20000010	-2.28408000	-36.87254000
1.40000009	-2.81127000	-36.82332000
1.60000008	-2.63533500	-37.17397000
1.80000006	-1.75689000	-36.77411000
2.00000005	0.00000000	-36.46038000
2.20000004	2.10814500	-36.82332000
2.40000003	4.04096900	-37.63533000
2.60000002	5.27128500	-38.04749000
2.80000000	5.09534900	-38.14591000
2.99999999	3.51377900	-38.50886000
3.19999998	0.70250980	-38.90871000
3.39999997	-2.63533500	-38.45964000
3.59999996	-5.79847400	-37.68455000
3.79999994	-7.73129900	-36.82332000
3.99999993	-7.90661900	-36.41117000
4.19999992	-5.79847400	-36.36196000
4.39999991	-2.10814500	-36.36196000
4.59999990	2.28408000	-36.41117000
4.79999989	6.32566500	-36.87254000
4.99999987	8.96099900	-38.09670000
5.19999986	9.31225400	-39.32087000
5.39999985	7.37942900	-39.78223000
5.59999984	3.51377900	-39.83145000
5.79999983	-1.22970000	-39.78223000
5.99999981	-5.79847400	-39.41929000
6.19999980	-8.78567900	-38.97022000
6.39999979	-9.48818900	-38.90871000
6.59999978	-7.90661900	-38.09670000
6.79999977	-4.39283900	-37.33390000
6.99999975	0.00000000	-37.68455000
7.19999974	4.04096900	-38.04749000
7.39999973	6.85223900	-38.14591000
7.59999972	7.73129900	-38.55807000
7.79999971	6.67691900	-39.32087000
7.99999970	4.04096900	-39.32087000
8.19999968	0.70250980	-38.55807000
8.39999967	-2.28408000	-38.14591000
8.59999966	-4.39283900	-38.09670000
8.79999965	-5.09534900	-38.09670000
8.99999964	-4.56816000	-38.09670000
9.19999962	-2.98659000	-38.09670000
9.39999961	-0.87844490	-38.09670000
9.59999960	0.87844490	-38.09670000
9.79999959	2.10814500	-38.09670000
9.99999958	2.45940000	-38.09670000
10.19999956	2.28408000	-38.09670000
10.39999955	1.40563500	-38.09670000
10.59999954	0.52657480	-38.09670000
10.79999953	-0.35125490	-38.09670000
10.99999952	-0.70250980	-38.09670000
11.19999951	-1.05376500	-38.09670000
11.39999949	-0.87844490	-38.09670000
11.59999948	-0.70250980	-38.09670000
11.79999947	-0.35125490	-38.09670000
11.99999946	0.00000000	-38.09670000
12.19999945	0.00000000	-38.09670000
12.39999943	0.00000000	-38.09670000
12.59999942	-0.17531990	-38.09670000
12.79999941	-0.17531990	-38.09670000
12.99999940	-0.17531990	-38.09670000
13.19999939	-0.17531990	-38.09670000
13.39999937	0.00000000	-38.09670000
13.59999936	0.00000000	-38.09670000
13.79999935	0.00000000	-38.09670000
13.99999934	0.00000000	-38.09670000
14.19999933	0.00000000	-38.09670000
14.39999932	0.00000000	-38.09670000
14.59999930	0.00000000	-38.09670000
14.79999929	0.00000000	-38.09670000
14.99999928	0.00000000	-38.09670000
15.19999927	0.00000000	-38.09670000
15.39999926	0.00000000	-38.09670000
15.59999924	0.00000000	-38.09670000
15.79999923	0.00000000	-38.09670000
15.99999922	0.00000000	-38.09670000
16.19999921	0.00000000	-38.09670000
16.39999920	0.00000000	-38.09670000
16.59999919	0.00000000	-38.09670000
16.79999917	0.00000000	-38.09670000
16.99999916	0.00000000	-38.09670000
17.19999915	0.00000000	-38.09670000
17.39999914	0.00000000	-38.09670000
17.59999913	0.00000000	-38.09670000
17.79999911	0.00000000	-38.09670000
17.99999910	0.00000000	-38.09670000
18.19999909	0.00000000	-38.09670000
18.39999908	0.00000000	-38.09670000
18.59999907	0.00000000	-38.09670000
18.79999905	0.00000000	-38.09670000
18.99999904	0.00000000	-38.09670000
19.19999903	0.00000000	-38.09670000
19.39999902	0.00000000	-38.09670000
19.59999901	0.00000000	-38.09670000
19.79999900	0.00000000	-38.09670000
19.99999898	0.00000000	-38.09670000
20.19999897	0.00000000	-38.09670000
20.39999896	0.00000000	-38.09670000
20.59999895	0.00000000	-38.09670000
20.79999894	0.00000000	-38.09670000
20.99999892	0.00000000	-38.09670000
21.19999891	0.00000000	-38.09670000
21.39999890	0.00000000	-38.09670000
21.59999889	0.00000000	-38.09670000
21.79999888	0.00000000	-38.09670000
21.99999886	0.00000000	-38.09670000
22.19999885	0.00000000	-38.09670000
22.39999884	0.00000000	-38.09670000
22.59999883	0.00000000	-38.09670000
22.79999882	0.00000000	-38.09670000
22.99999881	0.00000000	-38.14591000
23.19999879	0.00000000	-38.55807000
23.39999878	0.00000000	-39.37008000
23.59999877	0.00000000	-39.78223000
23.79999876	0.00000000	-39.83145000
23.99999875	0.00000000	-39.83145000
24.19999873	0.00000000	-39.78223000
24.39999872	0.00000000	-39.32087000
24.59999871	0.00000000	-38.04749000
24.79999870	0.00000000	-36.41117000
24.99999869	0.00000000	-35.14394000
25.19999867	0.00000000	-34.73179000
25.39999866	0.00000000	-35.19316000
25.59999865	0.00000000	-36.87254000
25.79999864	0.00000000	-39.41929000
25.99999863	0.00000000	-42.02140000
26.19999862	0.00000000	-44.97416000
26.39999860	0.00000000	-47.47170000
26.59999859	0.00000000	-48.24065000
26.79999858	0.00000000	-46.96112000
26.99999857	0.00000000	-43.09793000
27.19999856	0.00000000	-37.58612000
27.39999854	0.00000000	-31.21924000
27.59999853	0.00000000	-25.35679000
27.79999852	0.00000000	-21.99188000
27.99999851	0.00000000	-22.04109000
28.19999850	0.00000000	-25.91658000
28.39999848	0.00000000	-33.60605000
28.59999847	0.00000000	-43.79921000
28.79999846	0.00000000	-54.75516000
28.99999845	0.00000000	-63.52116000
29.19999844	0.00000000	-66.83685000
29.39999843	0.00000000	-63.47195000
29.59999841	0.00000000	-54.10310000
29.79999840	0.00000000	-40.49582000
29.99999839	0.00000000	-24.75394000
30.19999838	0.00000000	-10.02092000
30.39999837	0.00000000	-0.03075787
30.59999835	0.00000000	1.13804100
30.79999834	0.00000000	-7.76943800
30.99999833	0.00000000	-24.64321000
31.19999832	0.00000000	-45.83538000
31.39999831	0.00000000	-66.17249000
31.59999829	0.00000000	-81.81594000
31.79999828	0.00000000	-88.85334000
31.99999827	0.00000000	-84.16584000
32.19999826	0.00000000	-68.52239000
32.39999825	0.00000000	-45.63853000
32.59999824	0.00000000	-20.21407000
32.79999822	0.00000000	2.15920300
32.99999821	0.00000000	16.06791000
33.19999820	0.00000000	17.74729000
33.39999819	0.00000000	6.74827700
33.59999818	0.00000000	-14.45005000
33.79999816	0.00000000	-41.56004000
33.99999815	0.00000000	-68.62081000
34.19999814	0.00000000	-89.31470000
34.39999813	0.00000000	-98.58513000
34.59999812	0.00000000	-93.94685000
34.79999810	0.00000000	-76.67322000
34.99999809	0.00000000	-51.24261000
35.19999808	0.00000000	-23.31447000
35.39999807	0.00000000	1.23646700
35.59999806	0.00000000	16.43085000
35.79999805	0.00000000	19.02067000
35.99999803	0.00000000	8.47687000
36.19999802	0.00000000	-12.26009000
36.39999801	0.00000000	-38.45964000
36.59999800	0.00000000	-64.24089000
36.79999799	0.00000000	-82.84325000
36.99999797	0.00000000	-90.58193000
37.19999796	0.00000000	-86.35580000
37.39999795	0.00000000	-71.62278000
37.59999794	0.00000000	-50.07381000
37.79999793	0.00000000	-27.23917000
37.99999791	0.00000000	-8.18159400
38.19999790	0.00000000	2.77436000
38.39999789	0.00000000	2.82357300
38.59999788	0.00000000	-7.62180000
38.79999787	0.00000000	-24.85236000
38.99999786	0.00000000	-43.86073000
39.19999784	0.00000000	-59.95940000
39.39999783	0.00000000	-69.74039000
39.59999782	0.00000000	-71.47514000
39.79999781	0.00000000	-65.20669000
39.99999780	0.00000000	-53.02657000
40.19999778	0.00000000	-38.75492000
40.39999777	0.00000000	-26.52559000
40.59999776	0.00000000	-19.69734000
40.79999775	0.00000000	-19.13755000
40.99999774	0.00000000	-23.72662000
41.19999772	0.00000000	-31.72982000
41.39999771	0.00000000	-40.95103000
41.59999770	0.00000000	-48.54823000
41.79999769	0.00000000	-52.36835000
41.99999768	0.00000000	-52.01156000
42.19999767	0.00000000	-47.87770000
42.39999765	0.00000000	-42.07062000
42.59999764	0.00000000	-36.97096000
42.79999763	0.00000000	-33.55684000
42.99999762	0.00000000	-32.28346000
43.19999761	0.00000000	-33.50763000
43.39999759	0.00000000	-36.36196000
43.59999758	0.00000000	-39.27165000
43.79999757	0.00000000	-40.95103000
43.99999756	0.00000000	-41.04945000
44.19999755	0.00000000	-40.24360000
44.39999753	0.00000000	-39.41929000
44.59999752	0.00000000	-38.60728000
44.79999751	0.00000000	-38.60728000
44.99999750	0.00000000	-39.41929000
45.19999749	0.00000000	-40.29281000
45.39999748	0.00000000	-41.56004000
45.59999746	0.00000000	-42.68578000
45.79999745	0.00000000	-42.27977000
45.99999744	0.00000000	-40.19439000
46.19999743	0.00000000	-37.63533000
46.39999742	0.00000000	-34.63336000
46.59999740	0.00000000	-31.77903000
46.79999739	0.00000000	-30.60408000
46.99999738	0.00000000	-32.23425000
47.19999737	0.00000000	-36.00517000
47.39999736	0.00000000	-40.23745000
47.59999734	0.00000000	-44.46358000
47.79999733	0.00000000	-47.37327000
47.99999732	0.00000000	-47.82849000
48.19999731	0.00000000	-46.14911000
48.39999730	0.00000000	-42.78420000
48.59999729	0.00000000	-38.55807000
48.79999727	0.00000000	-34.73179000
48.99999726	0.00000000	-31.77903000
49.19999725	0.00000000	-30.50566000
49.39999724	0.00000000	-31.31767000
49.59999723	0.00000000	-33.45841000
49.79999721	0.00000000	-36.82332000
49.99999720	0.00000000	-40.59424000
50.19999719	0.00000000	-43.14714000
50.39999718	0.00000000	-44.51279000
50.59999717	0.00000000	-44.92495000
50.79999715	0.00000000	-44.51279000
50.99999714	0.00000000	-43.24557000
51.19999713	0.00000000	-41.56004000
51.39999712	0.00000000	-39.83145000
51.59999711	0.00000000	-38.09670000
51.79999710	0.00000000	-36.41117000
51.99999708	0.00000000	-35.14394000
52.19999707	0.00000000	-34.68258000
52.39999706	0.00000000	-34.68258000
52.59999705	0.00000000	-35.14394000
52.79999704	0.00000000	-36.46038000
52.99999702	0.00000000	-38.55807000
53.19999701	0.00000000	-41.09867000
53.39999700	0.00000000	-43.19635000
53.59999699	0.00000000	-44.46358000
53.79999698	0.00000000	-44.46358000
53.99999696	0.00000000	-43.24557000
54.19999695	0.00000000	-41.51083000
54.39999694	0.00000000	-39.37008000
54.59999693	0.00000000	-36.82332000
54.79999692	0.00000000	-34.73179000
54.99999691	0.00000000	-33.55684000
55.19999689	0.00000000	-34.37500000
55.39999688	0.00000000	-37.27854000
55.59999687	0.00000000	-40.24360000
55.79999686	0.00000000	-43.24557000
55.99999685	0.00000000	-45.74311000
56.19999683	0.00000000	-46.56127000
56.39999682	0.00000000	-45.74311000
56.59999681	0.00000000	-43.19635000
56.79999680	0.00000000	-39.83145000
56.99999679	0.00000000	-36.46038000
57.19999677	0.00000000	-33.91363000
57.39999676	0.00000000	-33.04626000
57.59999675	0.00000000	-33.50763000
57.79999674	0.00000000	-35.64837000
57.99999673	0.00000000	-39.41929000
58.19999672	0.00000000	-43.19635000
58.39999670	0.00000000	-46.14911000
58.59999669	0.00000000	-47.37327000
58.79999668	0.00000000	-46.14911000
58.99999667	0.00000000	-43.19635000
59.19999666	0.00000000	-39.37008000
59.39999664	0.00000000	-35.14394000
59.59999663	0.00000000	-31.77903000
59.79999662	0.00000000	-30.14272000
59.99999661	0.00000000	-30.96087000
60.19999660	0.00000000	-34.31963000
60.39999658	0.00000000	-38.50886000
60.59999657	0.00000000	-42.78420000
60.79999656	0.00000000	-46.14911000
60.99999655	0.00000000	-47.82849000
61.19999654	0.00000000	-47.42249000
61.39999653	0.00000000	-44.87574000
61.59999651	0.00000000	-41.09867000
61.79999650	0.00000000	-36.87254000
61.99999649	0.00000000	-33.45841000
62.19999648	0.00000000	-31.31767000
62.39999647	0.00000000	-30.50566000
62.59999645	0.00000000	-31.77903000
62.79999644	0.00000000	-34.63336000
62.99999643	0.00000000	-37.63533000
63.19999642	0.00000000	-40.24360000
63.39999641	0.00000000	-42.78420000
63.59999639	0.00000000	-44.46358000
63.79999638	0.00000000	-44.92495000
63.99999637	0.00000000	-44.51279000
64.19999636	0.00000000	-43.24557000
64.39999635	0.00000000	-41.56004000
64.59999634	0.00000000	-39.78223000
64.79999632	0.00000000	-37.63533000
64.99999631	0.00000000	-35.14394000
65.19999630	0.00000000	-33.45841000
65.39999629	0.00000000	-32.99704000
65.59999628	0.00000000	-33.40920000
65.79999626	0.00000000	-34.78100000
65.99999625	0.00000000	-37.33390000
66.19999624	0.00000000	-41.14788000
66.39999623	0.00000000	-44.92495000
66.59999622	0.00000000	-47.92691000
66.79999620	0.00000000	-49.56323000
66.99999619	0.00000000	-49.15723000
67.19999618	0.00000000	-46.56127000
67.39999617	0.00000000	-42.32283000
67.59999616	0.00000000	-36.82332000
67.79999615	0.00000000	-31.82825000
67.99999613	0.00000000	-28.82013000
68.19999612	0.00000000	-28.36491000
68.39999611	0.00000000	-30.09350000
68.59999610	0.00000000	-34.01820000
68.79999609	0.00000000	-40.28666000
68.99999607	0.00000000	-46.96112000
69.19999606	0.00000000	-51.24261000
69.39999605	0.00000000	-53.02657000
69.59999604	0.00000000	-52.52214000
69.79999603	0.00000000	-49.15723000
69.99999601	0.00000000	-43.65773000
70.19999600	0.00000000	-37.73376000
70.39999599	0.00000000	-32.23425000
70.59999598	0.00000000	-28.86934000
70.79999597	0.00000000	-28.36491000
70.99999596	0.00000000	-30.04429000
71.19999594	0.00000000	-33.45841000
71.39999593	0.00000000	-38.14591000
71.59999592	0.00000000	-43.19635000
71.79999591	0.00000000	-47.42249000
71.99999590	0.00000000	-49.56323000
72.19999588	0.00000000	-49.56323000
72.39999587	0.00000000	-47.47170000
72.59999586	0.00000000	-43.65773000
72.79999585	0.00000000	-39.46850000
72.99999584	0.00000000	-35.59916000
73.19999582	0.00000000	-33.04626000
73.39999581	0.00000000	-31.77903000
73.59999580	0.00000000	-32.23425000
73.79999579	0.00000000	-34.78100000
73.99999578	0.00000000	-38.50886000
74.19999577	0.00000000	-42.32283000
74.39999575	0.00000000	-44.87574000
74.59999574	0.00000000	-46.24754000
74.79999573	0.00000000	-46.61048000
74.99999572	0.00000000	-45.69389000
75.19999571	0.00000000	-42.73499000
75.39999569	0.00000000	-38.60728000
75.59999568	0.00000000	-35.19316000
75.79999567	0.00000000	-33.04626000
75.99999566	0.00000000	-32.23425000
76.19999565	0.00000000	-33.50763000
76.39999563	0.00000000	-36.46038000
76.59999562	0.00000000	-40.23745000
76.79999561	0.00000000	-44.10679000
76.99999560	0.00000000	-47.02263000
77.19999559	0.00000000	-48.69586000
77.39999558	0.00000000	-47.77928000
77.59999556	0.00000000	-44.46358000
77.79999555	0.00000000	-39.78223000
77.99999554	0.00000000	-34.73179000
78.19999553	0.00000000	-30.50566000
78.39999552	0.00000000	-28.41412000
78.59999550	0.00000000	-28.82013000
78.79999549	0.00000000	-31.82825000
78.99999548	0.00000000	-36.92175000
79.19999547	0.00000000	-43.24557000
79.39999546	0.00000000	-49.15108000
79.59999544	0.00000000	-52.92815000
79.79999543	0.00000000	-53.78937000
79.99999542	0.00000000	-51.24261000
80.19999541	0.00000000	-46.14911000
80.39999540	0.00000000	-39.37008000
80.59999539	0.00000000	-32.18504000
80.79999537	0.00000000	-26.72859000
80.99999536	0.00000000	-24.13263000
81.19999535	0.00000000	-25.00000000
81.39999534	0.00000000	-28.82013000
81.59999533	0.00000000	-35.19316000
81.79999531	0.00000000	-42.78420000
81.99999530	0.00000000	-49.56323000
82.19999529	0.00000000	-54.25074000
82.39999528	0.00000000	-55.93011000
82.59999527	0.00000000	-54.29995000
82.79999525	0.00000000	-50.02460000
82.99999524	0.00000000	-44.05758000
83.19999523	0.00000000	-36.82332000
83.39999522	0.00000000	-30.09350000
83.59999521	0.00000000	-25.40600000
83.79999520	0.00000000	-23.72662000
83.99999518	0.00000000	-25.40600000
84.19999517	0.00000000	-30.04429000
84.39999516	0.00000000	-36.41117000
84.59999515	0.00000000	-43.24557000
84.79999514	0.00000000	-49.61245000
84.99999512	0.00000000	-54.25074000
85.19999511	0.00000000	-55.97933000
85.39999510	0.00000000	-54.70595000
85.59999509	0.00000000	-50.83661000
85.79999508	0.00000000	-44.51279000
85.99999506	0.00000000	-37.33390000
86.19999505	0.00000000	-31.31767000
86.39999504	0.00000000	-26.63017000
86.59999503	0.00000000	-24.18184000
86.79999502	0.00000000	-25.45521000
86.99999501	0.00000000	-30.04429000
87.19999499	0.00000000	-36.46038000
87.39999498	0.00000000	-43.65157000
87.59999497	0.00000000	-50.42446000
87.79999496	0.00000000	-54.65674000
87.99999495	0.00000000	-56.02854000
88.19999493	0.00000000	-54.70595000
88.39999492	0.00000000	-50.83661000
88.59999491	0.00000000	-44.46358000
88.79999490	0.00000000	-36.87254000
88.99999489	0.00000000	-30.09350000
89.19999487	0.00000000	-25.45521000
89.39999486	0.00000000	-24.18184000
89.59999485	0.00000000	-26.67938000
89.79999484	0.00000000	-31.72982000
89.99999483	0.00000000	-38.09670000
90.19999482	0.00000000	-44.46358000
90.39999480	0.00000000	-49.56323000
90.59999479	0.00000000	-52.57135000
90.79999478	0.00000000	-52.97736000
90.99999477	0.00000000	-50.88582000
91.19999476	0.00000000	-46.61048000
91.39999474	0.00000000	-41.14788000
91.59999473	0.00000000	-35.64837000
91.79999472	0.00000000	-31.82825000
91.99999471	0.00000000	-30.04429000
92.19999470	0.00000000	-30.09350000
92.39999468	0.00000000	-32.18504000
92.59999467	0.00000000	-35.95595000
92.79999466	0.00000000	-39.78223000
92.99999465	0.00000000	-43.19635000
93.19999464	0.00000000	-45.74311000
93.39999463	0.00000000	-46.61048000
93.59999461	0.00000000	-46.19833000
93.79999460	0.00000000	-44.51279000
93.99999459	0.00000000	-41.97219000
94.19999458	0.00000000	-39.41929000
94.39999457	0.00000000	-36.87254000
94.59999455	0.00000000	-35.19316000
94.79999454	0.00000000	-34.73179000
94.99999453	0.00000000	-35.14394000
95.19999452	0.00000000	-36.41117000
95.39999451	0.00000000	-38.09670000
95.59999449	0.00000000	-39.78223000
95.79999448	0.00000000	-41.09867000
95.99999447	0.00000000	-41.97219000
96.19999446	0.00000000	-42.78420000
96.39999445	0.00000000	-42.78420000
96.59999444	0.00000000	-42.02140000
96.79999442	0.00000000	-41.56004000
96.99999441	0.00000000	-41.09867000
97.19999440	0.00000000	-40.24360000
97.39999439	0.00000000	-39.41929000
97.59999438	0.00000000	-38.55807000
97.79999436	0.00000000	-38.14591000
97.99999435	0.00000000	-38.09670000
98.19999434	0.00000000	-38.14591000
98.39999433	0.00000000	-38.55807000
98.59999432	0.00000000	-39.41929000
98.79999430	0.00000000	-40.24360000
98.99999429	0.00000000	-41.14788000
99.19999428	0.00000000	-41.97219000
99.39999427	0.00000000	-42.83341000
99.59999426	0.00000000	-43.19635000
99.79999425	0.00000000	-42.83341000
99.99999423	0.00000000	-41.97219000
100.19999422	0.00000000	-41.14788000
100.39999421	0.00000000	-40.24360000
100.59999420	0.00000000	-39.41929000
100.79999419	0.00000000	-38.55807000
100.99999417	0.00000000	-38.19513000
101.19999416	0.00000000	-38.60728000
101.39999415	0.00000000	-39.83145000
101.59999414	0.00000000	-41.09867000
101.79999413	0.00000000	-41.97219000
101.99999411	0.00000000	-42.83341000
102.19999410	0.00000000	-43.24557000
102.39999409	0.00000000	-43.24557000
102.59999408	0.00000000	-42.83341000
102.79999407	0.00000000	-41.97219000
102.99999406	0.00000000	-41.09867000
103.19999404	0.00000000	-39.83145000
103.39999403	0.00000000	-38.60728000
103.59999402	0.00000000	-38.14591000
103.79999401	0.00000000	-38.14591000
103.99999400	0.00000000	-38.60728000
104.19999398	0.00000000	-39.83145000
104.39999397	0.00000000	-41.09867000
104.59999396	0.00000000	-41.97219000
104.79999395	0.00000000	-42.83341000
104.99999394	0.00000000	-43.19635000
105.19999392	0.00000000	-42.83341000
105.39999391	0.00000000	-41.97219000
105.59999390	0.00000000	-41.09867000
105.79999389	0.00000000	-39.83145000
105.99999388	0.00000000	-38.60728000
