Time	Channel A	Channel B
(us)	(V)	(mV)

-4.59999956	0.00000000	-11.60802000
-4.39999957	0.00000000	-11.65723000
-4.19999958	0.00000000	-11.30659000
-3.99999959	0.00000000	-11.70645000
-3.79999960	0.00000000	-12.02018000
-3.59999962	0.00000000	-11.70645000
-3.39999963	0.00000000	-11.30659000
-3.19999964	0.00000000	-11.70645000
-2.99999965	0.00000000	-12.02018000
-2.79999966	0.00000000	-11.70645000
-2.59999968	0.00000000	-11.25738000
-2.39999969	0.00000000	-11.25123000
-2.19999970	0.00000000	-10.80217000
-1.99999971	0.00000000	-10.48843000
-1.79999972	0.00000000	-10.80217000
-1.59999973	0.00000000	-11.20202000
-1.39999975	0.00000000	-10.80217000
-1.19999976	0.00000000	-10.43922000
-0.99999977	0.00000000	-10.39001000
-0.79999978	0.00000000	-10.39001000
-0.59999979	0.00000000	-10.39001000
-0.39999981	0.17531990	-10.39001000
-0.19999982	0.52657480	-10.39001000
0.00000017	0.87844490	-10.43922000
0.20000016	1.05376500	-10.85138000
0.40000015	0.87844490	-11.65723000
0.60000013	0.35125490	-12.06939000
0.80000012	-0.35125490	-12.06939000
1.00000011	-1.40563500	-11.70645000
1.20000010	-2.28408000	-11.25738000
1.40000009	-2.81127000	-11.25123000
1.60000008	-2.63533500	-10.80217000
1.80000006	-1.58095500	-10.43922000
2.00000005	0.17531990	-10.39001000
2.20000004	2.28408000	-10.43922000
2.40000003	4.21690500	-10.85138000
2.60000002	5.27128500	-11.65723000
2.80000000	5.09534900	-12.06939000
2.99999999	3.33846000	-12.11860000
3.19999998	0.52657480	-12.06939000
3.39999997	-2.98659000	-11.65723000
3.59999996	-5.97379400	-10.85138000
3.79999994	-7.90661900	-10.43922000
3.99999993	-7.73129900	-10.39001000
4.19999992	-5.62254000	-10.39001000
4.39999991	-1.75689000	-10.39001000
4.59999990	2.45940000	-10.43922000
4.79999989	6.50098400	-10.85138000
4.99999987	8.96099900	-11.65723000
5.19999986	9.31225400	-12.06939000
5.39999985	7.20410900	-12.11860000
5.59999984	3.16252500	-12.11860000
5.79999983	-1.58095500	-12.06939000
5.99999981	-5.97379400	-11.65723000
6.19999980	-8.78567900	-10.85138000
6.39999979	-9.31225400	-10.43922000
6.59999978	-7.55536400	-10.39001000
6.79999977	-4.04096900	-10.39001000
6.99999975	0.35125490	-10.39001000
7.19999974	4.39283900	-10.43922000
7.39999973	7.02817400	-10.85138000
7.59999972	7.73129900	-11.65723000
7.79999971	6.50098400	-12.06939000
7.99999970	3.68971500	-12.06939000
8.19999968	0.52657480	-11.65723000
8.39999967	-2.45940000	-10.85138000
8.59999966	-4.56816000	-10.43922000
8.79999965	-5.27128500	-10.39001000
8.99999964	-4.39283900	-10.39001000
9.19999962	-2.81127000	-10.39001000
9.39999961	-0.87844490	-10.43922000
9.59999960	0.87844490	-10.80217000
9.79999959	2.10814500	-11.25123000
9.99999958	2.45940000	-11.20817000
10.19999956	2.10814500	-11.25123000
10.39999955	1.40563500	-10.80217000
10.59999954	0.35125490	-10.43922000
10.79999953	-0.35125490	-10.39001000
10.99999952	-0.87844490	-10.39001000
11.19999951	-0.87844490	-10.39001000
11.39999949	-0.87844490	-10.39001000
11.59999948	-0.70250980	-10.39001000
11.79999947	-0.35125490	-10.39001000
11.99999946	0.00000000	-10.39001000
12.19999945	0.00000000	-10.39001000
12.39999943	0.00000000	-10.39001000
12.59999942	-0.17531990	-10.39001000
12.79999941	-0.17531990	-10.39001000
12.99999940	-0.17531990	-10.39001000
13.19999939	-0.17531990	-10.43922000
13.39999937	-0.17531990	-10.85138000
13.59999936	0.00000000	-11.60802000
13.79999935	0.00000000	-11.60802000
13.99999934	0.00000000	-10.90059000
14.19999933	0.00000000	-10.85138000
14.39999932	0.00000000	-11.20202000
14.59999930	0.00000000	-10.80217000
14.79999929	0.00000000	-10.43922000
14.99999928	0.00000000	-10.39001000
15.19999927	0.00000000	-10.43922000
15.39999926	0.00000000	-10.80217000
15.59999924	0.00000000	-11.20202000
15.79999923	0.00000000	-10.80217000
15.99999922	0.00000000	-10.43922000
16.19999921	0.00000000	-10.39001000
16.39999920	0.00000000	-10.39001000
16.59999919	0.00000000	-10.39001000
16.79999917	0.00000000	-10.39001000
16.99999916	0.00000000	-10.39001000
17.19999915	0.00000000	-10.39001000
17.39999914	0.00000000	-10.39001000
17.59999913	0.00000000	-10.39001000
17.79999911	0.00000000	-10.39001000
17.99999910	0.00000000	-10.39001000
18.19999909	0.00000000	-10.39001000
18.39999908	0.00000000	-10.39001000
18.59999907	0.00000000	-10.39001000
18.79999905	0.00000000	-10.39001000
18.99999904	0.00000000	-10.39001000
19.19999903	0.00000000	-10.39001000
19.39999902	0.00000000	-10.39001000
19.59999901	0.00000000	-10.39001000
19.79999900	0.00000000	-10.39001000
19.99999898	0.00000000	-10.39001000
20.19999897	0.00000000	-10.39001000
20.39999896	0.00000000	-10.39001000
20.59999895	0.00000000	-10.39001000
20.79999894	0.00000000	-10.39001000
20.99999892	0.00000000	-10.39001000
21.19999891	0.00000000	-10.43922000
21.39999890	0.00000000	-10.80217000
21.59999889	0.00000000	-11.20202000
21.79999888	0.00000000	-10.80217000
21.99999886	0.00000000	-10.43922000
22.19999885	0.00000000	-10.39001000
22.39999884	0.00000000	-10.39001000
22.59999883	0.00000000	-10.39001000
22.79999882	0.00000000	-10.43922000
22.99999881	0.00000000	-10.85138000
23.19999879	0.00000000	-11.65723000
23.39999878	0.00000000	-12.06939000
23.59999877	0.00000000	-12.11860000
23.79999876	0.00000000	-12.11860000
23.99999875	0.00000000	-12.06939000
24.19999873	0.00000000	-11.65723000
24.39999872	0.00000000	-10.80217000
24.59999871	0.00000000	-9.92864100
24.79999870	0.00000000	-8.65526600
24.99999869	0.00000000	-7.43725300
25.19999867	0.00000000	-7.02509800
25.39999866	0.00000000	-7.48646600
25.59999865	0.00000000	-9.21505800
25.79999864	0.00000000	-12.11860000
25.99999863	0.00000000	-15.12057000
26.19999862	0.00000000	-17.67962000
26.39999860	0.00000000	-19.76501000
26.59999859	0.00000000	-20.07259000
26.79999858	0.00000000	-17.93184000
26.99999857	0.00000000	-13.24434000
27.19999856	0.00000000	-6.87746000
27.39999854	0.00000000	-0.14763780
27.59999853	0.00000000	5.30265700
27.79999852	0.00000000	7.39419200
27.99999851	0.00000000	5.65944900
28.19999850	0.00000000	0.05536417
28.39999848	0.00000000	-9.26427100
28.59999847	0.00000000	-20.26944000
28.79999846	0.00000000	-30.41338000
28.99999845	0.00000000	-37.54921000
29.19999844	0.00000000	-39.13017000
29.39999843	0.00000000	-33.98130000
29.59999841	0.00000000	-22.52091000
29.79999840	0.00000000	-6.82824800
29.99999839	0.00000000	9.63336600
30.19999838	0.00000000	23.08071000
30.39999837	0.00000000	29.35531000
30.59999835	0.00000000	26.39640000
30.79999834	0.00000000	14.88681000
30.99999833	0.00000000	-3.35260800
31.19999832	0.00000000	-24.90772000
31.39999831	0.00000000	-44.32824000
31.59999829	0.00000000	-57.01894000
31.79999828	0.00000000	-59.87328000
31.99999827	0.00000000	-51.35949000
32.19999826	0.00000000	-32.71407000
32.39999825	0.00000000	-8.20004800
32.59999824	0.00000000	16.76919000
32.79999822	0.00000000	36.18356000
32.99999821	0.00000000	45.50935000
33.19999820	0.00000000	42.50738000
33.39999819	0.00000000	27.62672000
33.59999818	0.00000000	3.51870100
33.79999816	0.00000000	-24.39714000
33.99999815	0.00000000	-49.32333000
34.19999814	0.00000000	-65.87721000
34.39999813	0.00000000	-70.06643000
34.59999812	0.00000000	-61.18971000
34.79999810	0.00000000	-40.86491000
34.99999809	0.00000000	-13.80413000
35.19999808	0.00000000	13.71186000
35.39999807	0.00000000	35.67298000
35.59999806	0.00000000	46.67815000
35.79999805	0.00000000	44.18676000
35.99999803	0.00000000	29.40452000
36.19999802	0.00000000	5.76402500
36.39999801	0.00000000	-20.88459000
36.59999800	0.00000000	-44.18061000
36.79999799	0.00000000	-59.41191000
36.99999797	0.00000000	-62.77681000
37.19999796	0.00000000	-53.59867000
37.39999795	0.00000000	-35.05167000
37.59999794	0.00000000	-12.21703000
37.79999793	0.00000000	9.78715500
37.99999791	0.00000000	25.84276000
38.19999790	0.00000000	32.25885000
38.39999789	0.00000000	28.08194000
38.59999788	0.00000000	15.08366000
38.79999787	0.00000000	-3.05118100
38.99999786	0.00000000	-21.19833000
39.19999784	0.00000000	-35.15625000
39.39999783	0.00000000	-41.52928000
39.59999782	0.00000000	-39.13017000
39.79999781	0.00000000	-29.95817000
39.99999780	0.00000000	-17.31668000
40.19999778	0.00000000	-4.67519700
40.39999777	0.00000000	4.64443900
40.59999776	0.00000000	8.56914300
40.79999775	0.00000000	7.34498000
40.99999774	0.00000000	1.88853300
41.19999772	0.00000000	-6.51451700
41.39999771	0.00000000	-14.87451000
41.59999770	0.00000000	-20.83538000
41.79999769	0.00000000	-22.97613000
41.99999768	0.00000000	-21.39518000
42.19999767	0.00000000	-17.21826000
42.39999765	0.00000000	-12.16781000
42.59999764	0.00000000	-7.53567900
42.79999763	0.00000000	-4.57677100
42.99999762	0.00000000	-4.12155500
43.19999761	0.00000000	-5.75172200
43.39999759	0.00000000	-8.60605200
43.59999758	0.00000000	-11.10359000
43.79999757	0.00000000	-12.02018000
43.99999756	0.00000000	-12.06939000
44.19999755	0.00000000	-11.60802000
44.39999753	0.00000000	-10.39001000
44.59999752	0.00000000	-9.21505800
44.79999751	0.00000000	-9.21505800
44.99999750	0.00000000	-10.43922000
45.19999749	0.00000000	-12.11860000
45.39999748	0.00000000	-13.75492000
45.59999746	0.00000000	-14.56693000
45.79999745	0.00000000	-13.70571000
45.99999744	0.00000000	-11.60802000
46.19999743	0.00000000	-8.65526600
46.39999742	0.00000000	-5.70251000
46.59999740	0.00000000	-3.61097400
46.79999739	0.00000000	-2.84817900
46.99999738	0.00000000	-4.52755900
47.19999737	0.00000000	-8.24311000
47.39999736	0.00000000	-12.06939000
47.59999734	0.00000000	-15.48351000
47.79999733	0.00000000	-17.98105000
47.99999732	0.00000000	-18.38706000
48.19999731	0.00000000	-16.75689000
48.39999730	0.00000000	-13.80413000
48.59999729	0.00000000	-10.39001000
48.79999727	0.00000000	-7.02509800
48.99999726	0.00000000	-4.47834600
49.19999725	0.00000000	-3.61097400
49.39999724	0.00000000	-4.02313000
49.59999723	0.00000000	-5.70251000
49.79999721	0.00000000	-8.24311000
49.99999720	0.00000000	-10.80217000
50.19999719	0.00000000	-13.34276000
50.39999718	0.00000000	-15.02214000
50.59999717	0.00000000	-15.53273000
50.79999715	0.00000000	-15.53273000
50.99999714	0.00000000	-15.07136000
51.19999713	0.00000000	-13.80413000
51.39999712	0.00000000	-12.11860000
51.59999711	0.00000000	-10.39001000
51.79999710	0.00000000	-8.65526600
51.99999708	0.00000000	-6.97588500
52.19999707	0.00000000	-5.75172200
52.39999706	0.00000000	-5.75172200
52.59999705	0.00000000	-6.97588500
52.79999704	0.00000000	-8.65526600
52.99999702	0.00000000	-10.39001000
53.19999701	0.00000000	-12.11860000
53.39999700	0.00000000	-13.80413000
53.59999699	0.00000000	-15.02214000
53.79999698	0.00000000	-15.02214000
53.99999696	0.00000000	-13.80413000
54.19999695	0.00000000	-12.06939000
54.39999694	0.00000000	-9.92864100
54.59999693	0.00000000	-7.43725300
54.79999692	0.00000000	-5.75172200
54.99999691	0.00000000	-5.33956700
55.19999689	0.00000000	-6.15772600
55.39999688	0.00000000	-8.34153500
55.59999687	0.00000000	-11.20817000
55.79999686	0.00000000	-14.15477000
55.99999685	0.00000000	-15.43430000
56.19999683	0.00000000	-15.48351000
56.39999682	0.00000000	-14.56693000
56.59999681	0.00000000	-12.06939000
56.79999680	0.00000000	-9.16584600
56.99999679	0.00000000	-6.97588500
57.19999677	0.00000000	-5.29035400
57.39999676	0.00000000	-4.52755900
57.59999675	0.00000000	-5.80093500
57.79999674	0.00000000	-8.70447700
57.99999673	0.00000000	-12.06939000
58.19999672	0.00000000	-15.07136000
58.39999670	0.00000000	-17.11983000
58.59999669	0.00000000	-17.51968000
58.79999668	0.00000000	-15.38509000
58.99999667	0.00000000	-11.65723000
59.19999666	0.00000000	-7.48646600
59.39999664	0.00000000	-4.47834600
59.59999663	0.00000000	-3.14960600
59.79999662	0.00000000	-2.74975400
59.99999661	0.00000000	-4.12155500
60.19999660	0.00000000	-7.43725300
60.39999658	0.00000000	-11.65723000
60.59999657	0.00000000	-15.43430000
60.79999656	0.00000000	-17.98105000
60.99999655	0.00000000	-18.38706000
61.19999654	0.00000000	-16.75689000
61.39999653	0.00000000	-13.80413000
61.59999651	0.00000000	-10.39001000
61.79999650	0.00000000	-6.97588500
61.99999649	0.00000000	-4.02313000
62.19999648	0.00000000	-2.38681100
62.39999647	0.00000000	-2.79281500
62.59999645	0.00000000	-5.29035400
62.79999644	0.00000000	-8.60605200
62.99999643	0.00000000	-11.60802000
63.19999642	0.00000000	-13.75492000
63.39999641	0.00000000	-15.07136000
63.59999639	0.00000000	-15.48351000
63.79999638	0.00000000	-15.07136000
63.99999637	0.00000000	-13.80413000
64.19999636	0.00000000	-12.11860000
64.39999635	0.00000000	-10.39001000
64.59999634	0.00000000	-8.65526600
64.79999632	0.00000000	-6.97588500
64.99999631	0.00000000	-5.70251000
65.19999630	0.00000000	-5.24114100
65.39999629	0.00000000	-5.24114100
65.59999628	0.00000000	-5.70251000
65.79999626	0.00000000	-7.07431000
65.99999625	0.00000000	-9.62721400
66.19999624	0.00000000	-13.39198000
66.39999623	0.00000000	-16.70768000
66.59999622	0.00000000	-18.48548000
66.79999620	0.00000000	-18.89764000
66.99999619	0.00000000	-17.98105000
67.19999618	0.00000000	-14.97293000
67.39999617	0.00000000	-10.39001000
67.59999616	0.00000000	-5.70251000
67.79999615	0.00000000	-1.87623000
67.99999613	0.00000000	0.61515740
68.19999612	0.00000000	0.61515740
68.39999611	0.00000000	-1.92544300
68.59999610	0.00000000	-6.16387700
68.79999609	0.00000000	-11.70645000
68.99999607	0.00000000	-17.11983000
69.19999606	0.00000000	-20.98302000
69.39999605	0.00000000	-22.26255000
69.59999604	0.00000000	-21.39518000
69.79999603	0.00000000	-17.98105000
69.99999601	0.00000000	-12.53076000
70.19999600	0.00000000	-7.02509800
70.39999599	0.00000000	-2.28838600
70.59999598	0.00000000	1.02731300
70.79999597	0.00000000	1.88853300
70.99999596	0.00000000	-0.19685040
71.19999594	0.00000000	-4.02313000
71.39999593	0.00000000	-9.11663300
71.59999592	0.00000000	-14.61614000
71.79999591	0.00000000	-18.79921000
71.99999590	0.00000000	-20.98302000
72.19999588	0.00000000	-20.53395000
72.39999587	0.00000000	-18.03026000
72.59999586	0.00000000	-13.75492000
72.79999585	0.00000000	-8.75369100
72.99999584	0.00000000	-4.47834600
73.19999582	0.00000000	-1.87623000
73.39999581	0.00000000	-0.60900590
73.59999580	0.00000000	-1.11343500
73.79999579	0.00000000	-4.07234200
73.99999578	0.00000000	-8.70447700
74.19999577	0.00000000	-13.75492000
74.39999575	0.00000000	-17.98105000
74.59999574	0.00000000	-20.07259000
74.79999573	0.00000000	-19.71580000
74.99999572	0.00000000	-17.16904000
75.19999571	0.00000000	-13.34276000
75.39999569	0.00000000	-8.65526600
75.59999568	0.00000000	-4.07234200
75.79999567	0.00000000	-1.11343500
75.99999566	0.00000000	-0.65821850
76.19999565	0.00000000	-2.38681100
76.39999563	0.00000000	-6.15772600
76.59999562	0.00000000	-11.25123000
76.79999561	0.00000000	-15.89567000
76.99999560	0.00000000	-19.70964000
77.19999559	0.00000000	-21.29675000
77.39999558	0.00000000	-19.61122000
77.59999556	0.00000000	-15.02214000
77.79999555	0.00000000	-9.11663300
77.99999554	0.00000000	-3.61097400
78.19999553	0.00000000	0.61515740
78.39999552	0.00000000	2.29453700
78.59999550	0.00000000	1.02731300
78.79999549	0.00000000	-2.79896600
78.99999548	0.00000000	-8.75369100
79.19999547	0.00000000	-15.48351000
79.39999546	0.00000000	-21.34596000
79.59999544	0.00000000	-24.29872000
79.79999543	0.00000000	-23.48671000
79.99999542	0.00000000	-19.71580000
80.19999541	0.00000000	-13.75492000
80.39999540	0.00000000	-6.97588500
80.59999539	0.00000000	-0.60900590
80.79999537	0.00000000	3.98006900
80.99999536	0.00000000	5.25344500
81.19999535	0.00000000	2.75590500
81.39999534	0.00000000	-2.33759800
81.59999533	0.00000000	-9.11663300
81.79999531	0.00000000	-16.29552000
81.99999530	0.00000000	-21.80118000
82.19999529	0.00000000	-24.80930000
82.39999528	0.00000000	-24.85851000
82.59999527	0.00000000	-22.26255000
82.79999525	0.00000000	-17.51968000
82.99999524	0.00000000	-10.34080000
83.19999523	0.00000000	-2.84817900
83.39999522	0.00000000	2.30068900
83.59999521	0.00000000	4.48449800
83.79999520	0.00000000	4.07849400
83.99999518	0.00000000	1.07037400
84.19999517	0.00000000	-4.02313000
84.39999516	0.00000000	-10.39001000
84.59999515	0.00000000	-16.75689000
84.79999514	0.00000000	-21.85039000
84.99999512	0.00000000	-24.80930000
85.19999511	0.00000000	-24.80930000
85.39999510	0.00000000	-21.85039000
85.59999509	0.00000000	-16.75689000
85.79999508	0.00000000	-10.39001000
85.99999506	0.00000000	-4.02313000
86.19999505	0.00000000	1.07037400
86.39999504	0.00000000	4.02928100
86.59999503	0.00000000	4.02928100
86.79999502	0.00000000	1.07037400
86.99999501	0.00000000	-4.02313000
87.19999499	0.00000000	-10.39001000
87.39999498	0.00000000	-16.70768000
87.59999497	0.00000000	-21.44439000
87.79999496	0.00000000	-23.99729000
87.99999495	0.00000000	-24.34793000
88.19999493	0.00000000	-21.39518000
88.39999492	0.00000000	-15.94488000
88.59999491	0.00000000	-9.97785300
88.79999490	0.00000000	-3.97391700
88.99999489	0.00000000	1.02116100
89.19999487	0.00000000	3.56791300
89.39999486	0.00000000	2.75590500
89.59999485	0.00000000	-0.55979330
89.79999484	0.00000000	-5.29035400
89.99999483	0.00000000	-10.80217000
90.19999482	0.00000000	-16.30167000
90.39999480	0.00000000	-20.07259000
90.59999479	0.00000000	-21.39518000
90.79999478	0.00000000	-20.17101000
90.99999477	0.00000000	-17.16904000
91.19999476	0.00000000	-12.93676000
91.39999474	0.00000000	-7.89247000
91.59999473	0.00000000	-4.07234200
91.79999472	0.00000000	-1.87623000
91.99999471	0.00000000	-1.06422200
92.19999470	0.00000000	-2.33759800
92.39999468	0.00000000	-5.24114100
92.59999467	0.00000000	-8.65526600
92.79999466	0.00000000	-12.02018000
92.99999465	0.00000000	-14.56693000
93.19999464	0.00000000	-15.48351000
93.39999463	0.00000000	-15.48351000
93.59999461	0.00000000	-14.61614000
93.79999460	0.00000000	-12.53076000
93.99999459	0.00000000	-10.43922000
94.19999458	0.00000000	-8.70447700
94.39999457	0.00000000	-7.43725300
94.59999455	0.00000000	-6.97588500
94.79999454	0.00000000	-6.97588500
94.99999453	0.00000000	-7.38804100
95.19999452	0.00000000	-8.24311000
95.39999451	0.00000000	-9.06742000
95.59999449	0.00000000	-9.97785300
95.79999448	0.00000000	-10.80217000
95.99999447	0.00000000	-11.65723000
96.19999446	0.00000000	-12.06939000
96.39999445	0.00000000	-12.06939000
96.59999444	0.00000000	-11.65723000
96.79999442	0.00000000	-10.85138000
96.99999441	0.00000000	-10.43922000
97.19999440	0.00000000	-10.34080000
97.39999439	0.00000000	-9.92864100
97.59999438	0.00000000	-9.11663300
97.79999436	0.00000000	-8.70447700
97.99999435	0.00000000	-8.65526600
98.19999434	0.00000000	-8.65526600
98.39999433	0.00000000	-8.65526600
98.59999432	0.00000000	-8.70447700
98.79999430	0.00000000	-9.16584600
98.99999429	0.00000000	-10.39001000
99.19999428	0.00000000	-11.60802000
99.39999427	0.00000000	-12.06939000
99.59999426	0.00000000	-12.11860000
99.79999425	0.00000000	-12.06939000
99.99999423	0.00000000	-11.60802000
100.19999422	0.00000000	-10.39001000
100.39999421	0.00000000	-9.11663300
100.59999420	0.00000000	-8.24311000
100.79999419	0.00000000	-7.43725300
100.99999417	0.00000000	-7.43725300
101.19999416	0.00000000	-8.24311000
101.39999415	0.00000000	-9.06742000
101.59999414	0.00000000	-9.97785300
101.79999413	0.00000000	-10.80217000
101.99999411	0.00000000	-11.65723000
102.19999410	0.00000000	-12.06939000
102.39999409	0.00000000	-12.06939000
102.59999408	0.00000000	-11.65723000
102.79999407	0.00000000	-10.80217000
102.99999406	0.00000000	-9.92864100
103.19999404	0.00000000	-8.65526600
103.39999403	0.00000000	-7.48646600
103.59999402	0.00000000	-7.43725300
103.79999401	0.00000000	-8.24311000
103.99999400	0.00000000	-9.06742000
104.19999398	0.00000000	-9.97785300
104.39999397	0.00000000	-10.80217000
104.59999396	0.00000000	-11.65723000
104.79999395	0.00000000	-12.06939000
104.99999394	0.00000000	-12.06939000
105.19999392	0.00000000	-11.65723000
105.39999391	0.00000000	-10.80217000
105.59999390	0.00000000	-9.97785300
105.79999389	0.00000000	-9.06742000
105.99999388	0.00000000	-8.24311000
106.19999387	0.00000000	-7.43725300
106.39999385	0.00000000	-7.43725300
106.59999384	0.00000000	-8.24311000
106.79999383	0.00000000	-9.11663300
106.99999382	0.00000000	-10.39001000
107.19999381	0.00000000	-11.60802000
