Time	Channel A	Channel B
(us)	(V)	(mV)

-4.59999956	0.00000000	-5.19192900
-4.39999957	0.00000000	-5.19192900
-4.19999958	0.00000000	-5.19192900
-3.99999959	0.00000000	-5.19192900
-3.79999960	0.00000000	-5.14271600
-3.59999962	0.00000000	-4.77977300
-3.39999963	0.00000000	-4.37992100
-3.19999964	0.00000000	-4.77977300
-2.99999965	0.00000000	-5.14271600
-2.79999966	0.00000000	-5.19192900
-2.59999968	0.00000000	-5.19192900
-2.39999969	0.00000000	-5.19192900
-2.19999970	0.00000000	-5.19192900
-1.99999971	0.00000000	-5.19192900
-1.79999972	0.00000000	-5.19192900
-1.59999973	0.00000000	-5.19192900
-1.39999975	0.00000000	-5.19192900
-1.19999976	0.00000000	-5.19192900
-0.99999977	0.00000000	-5.19192900
-0.79999978	0.00000000	-5.19192900
-0.59999979	0.00000000	-5.19192900
-0.39999981	0.35125490	-5.19192900
-0.19999982	0.70250980	-5.19192900
0.00000017	0.87844490	-5.19192900
0.20000016	1.05376500	-5.19192900
0.40000015	0.70250980	-5.19192900
0.60000013	0.35125490	-5.19192900
0.80000012	-0.52657480	-5.19192900
1.00000011	-1.58095500	-5.19192900
1.20000010	-2.45940000	-5.19192900
1.40000009	-2.81127000	-5.19192900
1.60000008	-2.45940000	-5.19192900
1.80000006	-1.22970000	-5.19192900
2.00000005	0.70250980	-5.19192900
2.20000004	2.81127000	-5.19192900
2.40000003	4.56816000	-5.19192900
2.60000002	5.27128500	-5.19192900
2.80000000	4.74409400	-5.19192900
2.99999999	2.63533500	-5.19192900
3.19999998	-0.35125490	-5.24114100
3.39999997	-3.86565000	-5.60408400
3.59999996	-6.67691900	-6.00393600
3.79999994	-8.08255400	-5.55487200
3.99999993	-7.37942900	-4.77977300
4.19999992	-4.74409400	-3.92470400
4.39999991	-0.70250980	-3.56176100
4.59999990	3.68971500	-3.92470400
4.79999989	7.37942900	-4.73056000
4.99999987	9.31225400	-5.14271600
5.19999986	8.96099900	-5.24114100
5.39999985	6.32566500	-5.65329700
5.59999984	1.93282500	-6.41609200
5.79999983	-2.81127000	-6.41609200
5.99999981	-7.02817400	-5.65329700
6.19999980	-9.31225400	-5.19192900
6.39999979	-9.13693400	-4.73056000
6.59999978	-6.85223900	-3.92470400
6.79999977	-2.98659000	-3.51254900
6.99999975	1.40563500	-3.51254900
7.19999974	5.27128500	-3.92470400
7.39999973	7.37942900	-4.73056000
7.59999972	7.55536400	-5.14271600
7.79999971	5.79847400	-5.19192900
7.99999970	2.98659000	-5.24114100
8.19999968	-0.35125490	-5.60408400
8.39999967	-3.16252500	-6.00393600
8.59999966	-4.74409400	-5.60408400
8.79999965	-5.09534900	-5.24114100
8.99999964	-4.04096900	-5.19192900
9.19999962	-2.28408000	-5.14271600
9.39999961	-0.35125490	-4.77977300
9.59999960	1.40563500	-4.37992100
9.79999959	2.28408000	-4.77977300
9.99999958	2.45940000	-5.14271600
10.19999956	1.93282500	-5.19192900
10.39999955	1.05376500	-5.19192900
10.59999954	0.17531990	-5.19192900
10.79999953	-0.52657480	-5.19192900
10.99999952	-0.87844490	-5.19192900
11.19999951	-1.05376500	-5.19192900
11.39999949	-0.87844490	-5.19192900
11.59999948	-0.52657480	-5.19192900
11.79999947	-0.17531990	-5.19192900
11.99999946	0.00000000	-5.19192900
12.19999945	0.00000000	-5.19192900
12.39999943	-0.17531990	-5.19192900
12.59999942	-0.17531990	-5.19192900
12.79999941	-0.17531990	-5.19192900
12.99999940	-0.17531990	-5.19192900
13.19999939	-0.17531990	-5.19192900
13.39999937	-0.17531990	-5.19192900
13.59999936	0.00000000	-5.19192900
13.79999935	0.00000000	-5.19192900
13.99999934	0.00000000	-5.19192900
14.19999933	0.00000000	-5.19192900
14.39999932	0.00000000	-5.19192900
14.59999930	0.00000000	-5.19192900
14.79999929	0.00000000	-5.19192900
14.99999928	0.00000000	-5.19192900
15.19999927	0.00000000	-5.19192900
15.39999926	0.00000000	-5.19192900
15.59999924	0.00000000	-5.19192900
15.79999923	0.00000000	-5.19192900
15.99999922	0.00000000	-5.19192900
16.19999921	0.00000000	-5.19192900
16.39999920	0.00000000	-5.19192900
16.59999919	0.00000000	-5.19192900
16.79999917	0.00000000	-5.19192900
16.99999916	0.00000000	-5.19192900
17.19999915	0.00000000	-5.19192900
17.39999914	0.00000000	-5.24114100
17.59999913	0.00000000	-5.60408400
17.79999911	0.00000000	-6.00393600
17.99999910	0.00000000	-5.60408400
18.19999909	0.00000000	-5.24114100
18.39999908	0.00000000	-5.19192900
18.59999907	0.00000000	-5.19192900
18.79999905	0.00000000	-5.19192900
18.99999904	0.00000000	-5.19192900
19.19999903	0.00000000	-5.19192900
19.39999902	0.00000000	-5.19192900
19.59999901	0.00000000	-5.19192900
19.79999900	0.00000000	-5.19192900
19.99999898	0.00000000	-5.19192900
20.19999897	0.00000000	-5.19192900
20.39999896	0.00000000	-5.19192900
20.59999895	0.00000000	-5.19192900
20.79999894	0.00000000	-5.19192900
20.99999892	0.00000000	-5.19192900
21.19999891	0.00000000	-5.19192900
21.39999890	0.00000000	-5.19192900
21.59999889	0.00000000	-5.19192900
21.79999888	0.00000000	-5.19192900
21.99999886	0.00000000	-5.19192900
22.19999885	0.00000000	-5.19192900
22.39999884	0.00000000	-5.19192900
22.59999883	0.00000000	-5.19192900
22.79999882	0.00000000	-5.19192900
22.99999881	0.00000000	-5.19192900
23.19999879	0.00000000	-5.24114100
23.39999878	0.00000000	-5.65329700
23.59999877	0.00000000	-6.46530500
23.79999876	0.00000000	-6.82824800
23.99999875	0.00000000	-6.46530500
24.19999873	0.00000000	-5.60408400
24.39999872	0.00000000	-4.73056000
24.59999871	0.00000000	-3.46333600
24.79999870	0.00000000	-2.23917300
24.99999869	0.00000000	-1.77780500
25.19999867	0.00000000	-1.77780500
25.39999866	0.00000000	-2.28838600
25.59999865	0.00000000	-4.02313000
25.79999864	0.00000000	-6.92667200
25.99999863	0.00000000	-9.87942800
26.19999862	0.00000000	-12.02018000
26.39999860	0.00000000	-13.29355000
26.59999859	0.00000000	-13.19513000
26.79999858	0.00000000	-11.00517000
26.99999857	0.00000000	-6.31766700
27.19999856	0.00000000	0.00000000
27.39999854	0.00000000	6.31766700
27.59999853	0.00000000	10.90674000
27.79999852	0.00000000	12.18012000
27.99999851	0.00000000	9.58415200
28.19999850	0.00000000	3.56791300
28.39999848	0.00000000	-5.80093500
28.59999847	0.00000000	-16.75689000
28.79999846	0.00000000	-26.44562000
28.99999845	0.00000000	-32.30191000
29.19999844	0.00000000	-32.20350000
29.39999843	0.00000000	-25.37524000
29.59999841	0.00000000	-12.64149000
29.79999840	0.00000000	3.41412400
29.99999839	0.00000000	19.05758000
30.19999838	0.00000000	30.37032000
30.39999837	0.00000000	34.14124000
30.59999835	0.00000000	28.59252000
30.79999834	0.00000000	15.03445000
30.99999833	0.00000000	-4.07234200
31.19999832	0.00000000	-24.76009000
31.39999831	0.00000000	-42.08292000
31.59999829	0.00000000	-51.82086000
31.79999828	0.00000000	-51.72244000
31.99999827	0.00000000	-41.01870000
32.19999826	0.00000000	-20.68774000
32.39999825	0.00000000	4.63828700
32.59999824	0.00000000	28.64173000
32.79999822	0.00000000	45.19562000
32.99999821	0.00000000	50.30142000
33.19999820	0.00000000	43.92224000
33.39999819	0.00000000	26.44562000
33.59999818	0.00000000	1.11958700
33.79999816	0.00000000	-25.98425000
33.99999815	0.00000000	-48.81274000
34.19999814	0.00000000	-62.36466000
34.39999813	0.00000000	-63.13976000
34.59999812	0.00000000	-50.89813000
34.79999810	0.00000000	-28.07579000
34.99999809	0.00000000	-0.60900590
35.19999808	0.00000000	25.27682000
35.39999807	0.00000000	44.28518000
35.59999806	0.00000000	51.87622000
35.79999805	0.00000000	46.01993000
35.99999803	0.00000000	28.74015000
36.19999802	0.00000000	4.58907500
36.39999801	0.00000000	-21.19833000
36.59999800	0.00000000	-42.79650000
36.79999799	0.00000000	-55.03814000
36.99999797	0.00000000	-55.53641000
37.19999796	0.00000000	-44.13140000
37.39999795	0.00000000	-24.34793000
37.59999794	0.00000000	-1.11343500
37.79999793	0.00000000	19.56816000
37.99999791	0.00000000	32.76944000
38.19999790	0.00000000	36.23277000
38.39999789	0.00000000	29.91511000
38.59999788	0.00000000	15.59424000
38.79999787	0.00000000	-2.95275600
38.99999786	0.00000000	-20.63853000
39.19999784	0.00000000	-32.91707000
39.39999783	0.00000000	-36.79257000
39.59999782	0.00000000	-32.30191000
39.79999781	0.00000000	-21.75197000
39.99999780	0.00000000	-8.34153500
40.19999778	0.00000000	4.33070900
40.39999777	0.00000000	12.39542000
40.59999776	0.00000000	15.03445000
40.79999775	0.00000000	12.13091000
40.99999774	0.00000000	5.04429100
41.19999772	0.00000000	-3.36491100
41.39999771	0.00000000	-11.00517000
41.59999770	0.00000000	-16.04946000
41.79999769	0.00000000	-17.32283000
41.99999768	0.00000000	-14.46850000
42.19999767	0.00000000	-9.11663300
42.39999765	0.00000000	-4.07234200
42.59999764	0.00000000	-0.65821850
42.79999763	0.00000000	0.66437010
42.99999762	0.00000000	-0.14763780
43.19999761	0.00000000	-2.18996000
43.39999759	0.00000000	-4.73056000
43.59999758	0.00000000	-6.77903500
43.79999757	0.00000000	-7.64025500
43.99999756	0.00000000	-6.82824800
44.19999755	0.00000000	-5.19192900
44.39999753	0.00000000	-3.56176100
44.59999752	0.00000000	-2.74975400
44.79999751	0.00000000	-3.61097400
44.99999750	0.00000000	-5.65329700
45.19999749	0.00000000	-8.19389700
45.39999748	0.00000000	-10.24237000
45.59999746	0.00000000	-11.05438000
45.79999745	0.00000000	-9.78100300
45.99999744	0.00000000	-6.87746000
46.19999743	0.00000000	-3.46333600
46.39999742	0.00000000	-0.09842519
46.59999740	0.00000000	2.39911400
46.79999739	0.00000000	2.75590500
46.99999738	0.00000000	0.71358260
47.19999737	0.00000000	-3.10039400
47.39999736	0.00000000	-7.33882900
47.59999734	0.00000000	-11.55881000
47.79999733	0.00000000	-14.46850000
47.99999732	0.00000000	-14.92372000
48.19999731	0.00000000	-13.24434000
48.39999730	0.00000000	-9.83021600
48.59999729	0.00000000	-5.24114100
48.79999727	0.00000000	-1.01501000
48.99999726	0.00000000	1.58095500
49.19999725	0.00000000	2.85433100
49.39999724	0.00000000	2.44832700
49.59999723	0.00000000	0.31373030
49.79999721	0.00000000	-2.60211600
49.99999720	0.00000000	-6.05314900
50.19999719	0.00000000	-8.96899500
50.39999718	0.00000000	-11.15280000
50.59999717	0.00000000	-11.97096000
50.79999715	0.00000000	-11.55881000
50.99999714	0.00000000	-9.87942800
51.19999713	0.00000000	-7.38804100
51.39999712	0.00000000	-5.24114100
51.59999711	0.00000000	-3.46333600
51.79999710	0.00000000	-1.77780500
51.99999708	0.00000000	-0.51058070
52.19999707	0.00000000	-0.09842519
52.39999706	0.00000000	-0.55979330
52.59999705	0.00000000	-2.23917300
52.79999704	0.00000000	-4.73056000
52.99999702	0.00000000	-6.87746000
53.19999701	0.00000000	-8.60605200
53.39999700	0.00000000	-9.87942800
53.59999699	0.00000000	-10.29158000
53.79999698	0.00000000	-9.83021600
53.99999696	0.00000000	-8.14468500
54.19999695	0.00000000	-5.65329700
54.39999694	0.00000000	-3.51254900
54.59999693	0.00000000	-1.77780500
54.79999692	0.00000000	-0.55979330
54.99999691	0.00000000	-0.60900590
55.19999689	0.00000000	-2.28838600
55.39999688	0.00000000	-5.19192900
55.59999687	0.00000000	-8.09547100
55.79999686	0.00000000	-9.83021600
55.99999685	0.00000000	-10.29158000
56.19999683	0.00000000	-9.83021600
56.39999682	0.00000000	-8.09547100
56.59999681	0.00000000	-5.19192900
56.79999680	0.00000000	-2.23917300
56.99999679	0.00000000	-0.14763780
57.19999677	0.00000000	0.71358260
57.39999676	0.00000000	-0.14763780
57.59999675	0.00000000	-2.23917300
57.79999674	0.00000000	-5.24114100
57.99999673	0.00000000	-8.60605200
58.19999672	0.00000000	-11.55881000
58.39999670	0.00000000	-13.19513000
58.59999669	0.00000000	-12.73991000
58.79999668	0.00000000	-9.83021600
58.99999667	0.00000000	-5.65329700
59.19999666	0.00000000	-1.82701800
59.39999664	0.00000000	1.17495100
59.59999663	0.00000000	2.80511800
59.79999662	0.00000000	2.39911400
59.99999661	0.00000000	-0.14763780
60.19999660	0.00000000	-3.92470400
60.39999658	0.00000000	-8.19389700
60.59999657	0.00000000	-11.97096000
60.79999656	0.00000000	-14.46850000
60.99999655	0.00000000	-14.46850000
61.19999654	0.00000000	-12.02018000
61.39999653	0.00000000	-8.60605200
61.59999651	0.00000000	-4.73056000
61.79999650	0.00000000	-0.55979330
61.99999649	0.00000000	2.34990100
62.19999648	0.00000000	2.85433100
62.39999647	0.00000000	1.63016700
62.59999645	0.00000000	-0.51058070
62.79999644	0.00000000	-3.51254900
62.99999643	0.00000000	-6.87746000
63.19999642	0.00000000	-9.83021600
63.39999641	0.00000000	-11.50960000
63.59999639	0.00000000	-11.55881000
63.79999638	0.00000000	-10.34080000
63.99999637	0.00000000	-8.65526600
64.19999636	0.00000000	-6.92667200
64.39999635	0.00000000	-5.19192900
64.59999634	0.00000000	-3.46333600
64.79999632	0.00000000	-1.77780500
64.99999631	0.00000000	-0.51058070
65.19999630	0.00000000	-0.04921259
65.39999629	0.00000000	-0.04921259
65.59999628	0.00000000	-0.55979330
65.79999626	0.00000000	-2.28838600
65.99999625	0.00000000	-5.24114100
66.19999624	0.00000000	-8.60605200
66.39999623	0.00000000	-11.60802000
66.59999622	0.00000000	-13.70571000
66.79999620	0.00000000	-14.51772000
66.99999619	0.00000000	-13.19513000
67.19999618	0.00000000	-9.87942800
67.39999617	0.00000000	-5.60408400
67.59999616	0.00000000	-1.36565000
67.79999615	0.00000000	2.44832700
67.99999613	0.00000000	4.53371000
68.19999612	0.00000000	4.58292300
68.39999611	0.00000000	2.80511800
68.59999610	0.00000000	-1.01501000
68.79999609	0.00000000	-6.46530500
68.99999607	0.00000000	-11.55881000
69.19999606	0.00000000	-15.38509000
69.39999605	0.00000000	-17.47047000
69.59999604	0.00000000	-16.60925000
69.79999603	0.00000000	-13.24434000
69.99999601	0.00000000	-8.14468500
70.19999600	0.00000000	-2.23917300
70.39999599	0.00000000	2.80511800
70.59999598	0.00000000	5.81323800
70.79999597	0.00000000	6.26845500
70.99999596	0.00000000	4.58292300
71.19999594	0.00000000	1.11958700
71.39999593	0.00000000	-3.92470400
71.59999592	0.00000000	-9.42421200
71.79999591	0.00000000	-13.65650000
71.99999590	0.00000000	-16.25246000
72.19999588	0.00000000	-16.60925000
72.39999587	0.00000000	-14.51772000
72.59999586	0.00000000	-10.29158000
72.79999585	0.00000000	-5.24114100
72.99999584	0.00000000	-0.51058070
73.19999582	0.00000000	3.26648600
73.39999581	0.00000000	5.40108300
73.59999580	0.00000000	4.94586600
73.79999579	0.00000000	2.44832700
73.99999578	0.00000000	-1.82701800
74.19999577	0.00000000	-6.87746000
74.39999575	0.00000000	-11.55881000
74.59999574	0.00000000	-14.92372000
74.79999573	0.00000000	-16.14788000
74.99999572	0.00000000	-14.46850000
75.19999571	0.00000000	-10.29158000
75.39999569	0.00000000	-5.24114100
75.59999568	0.00000000	-0.55979330
75.79999567	0.00000000	2.85433100
75.99999566	0.00000000	4.48449800
76.19999565	0.00000000	3.61712600
76.39999563	0.00000000	-0.14763780
76.59999562	0.00000000	-5.19192900
76.79999561	0.00000000	-10.29158000
76.99999560	0.00000000	-14.51772000
77.19999559	0.00000000	-16.60925000
77.39999558	0.00000000	-16.15404000
77.59999556	0.00000000	-12.73991000
77.79999555	0.00000000	-6.87746000
77.99999554	0.00000000	-0.55979330
78.19999553	0.00000000	4.53371000
78.39999552	0.00000000	7.44340500
78.59999550	0.00000000	7.03125000
78.79999549	0.00000000	3.21727300
78.99999548	0.00000000	-2.70054100
79.19999547	0.00000000	-9.87942800
79.39999546	0.00000000	-16.15404000
79.59999544	0.00000000	-19.56816000
79.79999543	0.00000000	-19.56816000
79.99999542	0.00000000	-16.15404000
80.19999541	0.00000000	-9.83021600
80.39999540	0.00000000	-2.23917300
80.59999539	0.00000000	4.53986200
80.79999537	0.00000000	9.22121000
80.99999536	0.00000000	10.90674000
81.19999535	0.00000000	9.17199800
81.39999534	0.00000000	4.07849400
81.59999533	0.00000000	-3.51254900
81.79999531	0.00000000	-11.50960000
81.99999530	0.00000000	-17.88263000
82.19999529	0.00000000	-21.24754000
82.39999528	0.00000000	-20.88459000
82.59999527	0.00000000	-17.11983000
82.79999525	0.00000000	-11.55881000
82.99999524	0.00000000	-4.73056000
83.19999523	0.00000000	2.44832700
83.39999522	0.00000000	7.89862200
83.59999521	0.00000000	10.44537000
83.79999520	0.00000000	9.22121000
83.99999518	0.00000000	4.99507900
84.19999517	0.00000000	-0.96579720
84.39999516	0.00000000	-8.19389700
84.59999515	0.00000000	-14.92372000
84.79999514	0.00000000	-19.61122000
84.99999512	0.00000000	-21.34596000
85.19999511	0.00000000	-20.07259000
85.39999510	0.00000000	-16.25246000
85.59999509	0.00000000	-10.29158000
85.79999508	0.00000000	-3.51254900
85.99999506	0.00000000	2.85433100
86.19999505	0.00000000	7.49261800
86.39999504	0.00000000	9.22121000
86.59999503	0.00000000	7.94783400
86.79999502	0.00000000	4.12770700
86.99999501	0.00000000	-1.77780500
87.19999499	0.00000000	-8.14468500
87.39999498	0.00000000	-13.70571000
87.59999497	0.00000000	-17.93184000
87.79999496	0.00000000	-19.61122000
87.99999495	0.00000000	-18.33784000
88.19999493	0.00000000	-14.56693000
88.39999492	0.00000000	-9.01820900
88.59999491	0.00000000	-3.10039400
88.79999490	0.00000000	2.44832700
88.99999489	0.00000000	6.21924200
89.19999487	0.00000000	7.49261800
89.39999486	0.00000000	5.80708600
89.59999485	0.00000000	1.63016700
89.79999484	0.00000000	-3.46333600
89.99999483	0.00000000	-8.55684000
90.19999482	0.00000000	-12.83218000
90.39999480	0.00000000	-15.38509000
90.59999479	0.00000000	-16.24631000
90.79999478	0.00000000	-14.92372000
90.99999477	0.00000000	-11.55881000
91.19999476	0.00000000	-6.92667200
91.39999474	0.00000000	-2.28838600
91.59999473	0.00000000	1.12573800
91.79999472	0.00000000	2.85433100
91.99999471	0.00000000	2.85433100
92.19999470	0.00000000	1.17495100
92.39999468	0.00000000	-1.77780500
92.59999467	0.00000000	-5.14271600
92.79999466	0.00000000	-8.14468500
92.99999465	0.00000000	-10.29158000
93.19999464	0.00000000	-11.50960000
93.39999463	0.00000000	-11.10359000
93.59999461	0.00000000	-9.06742000
93.79999460	0.00000000	-6.97588500
93.99999459	0.00000000	-5.19192900
94.19999458	0.00000000	-3.51254900
94.39999457	0.00000000	-2.23917300
94.59999455	0.00000000	-1.82701800
94.79999454	0.00000000	-2.18996000
94.99999453	0.00000000	-3.05118100
95.19999452	0.00000000	-3.92470400
95.39999451	0.00000000	-5.19192900
95.59999449	0.00000000	-6.41609200
95.79999448	0.00000000	-6.82824800
95.99999447	0.00000000	-6.51451700
96.19999446	0.00000000	-6.11466500
96.39999445	0.00000000	-6.51451700
96.59999444	0.00000000	-6.82824800
96.79999442	0.00000000	-6.46530500
96.99999441	0.00000000	-5.65329700
97.19999440	0.00000000	-5.24114100
97.39999439	0.00000000	-5.14271600
97.59999438	0.00000000	-4.73056000
97.79999436	0.00000000	-3.92470400
97.99999435	0.00000000	-3.51254900
98.19999434	0.00000000	-3.51254900
98.39999433	0.00000000	-3.92470400
98.59999432	0.00000000	-4.73056000
98.79999430	0.00000000	-5.19192900
98.99999429	0.00000000	-5.65329700
99.19999428	0.00000000	-6.46530500
99.39999427	0.00000000	-6.87746000
99.59999426	0.00000000	-6.92667200
99.79999425	0.00000000	-6.87746000
99.99999423	0.00000000	-6.46530500
100.19999422	0.00000000	-5.60408400
100.39999421	0.00000000	-4.77977300
100.59999420	0.00000000	-3.92470400
100.79999419	0.00000000	-3.51254900
100.99999417	0.00000000	-3.46333600
101.19999416	0.00000000	-3.51254900
101.39999415	0.00000000	-3.92470400
101.59999414	0.00000000	-4.77977300
101.79999413	0.00000000	-5.60408400
101.99999411	0.00000000	-6.51451700
102.19999410	0.00000000	-7.28961600
102.39999409	0.00000000	-7.73868000
102.59999408	0.00000000	-7.28961600
102.79999407	0.00000000	-6.51451700
102.99999406	0.00000000	-5.60408400
103.19999404	0.00000000	-4.77977300
103.39999403	0.00000000	-3.92470400
103.59999402	0.00000000	-3.51254900
103.79999401	0.00000000	-3.46333600
103.99999400	0.00000000	-3.56176100
104.19999398	0.00000000	-4.37992100
104.39999397	0.00000000	-6.01008800
104.59999396	0.00000000	-6.87746000
104.79999395	0.00000000	-7.38804100
104.99999394	0.00000000	-8.14468500
105.19999392	0.00000000	-8.14468500
105.39999391	0.00000000	-7.33882900
105.59999390	0.00000000	-6.46530500
105.79999389	0.00000000	-5.19192900
105.99999388	0.00000000	-3.92470400
106.19999387	0.00000000	-3.10039400
106.39999385	0.00000000	-2.65132900
106.59999384	0.00000000	-3.10039400
106.79999383	0.00000000	-3.92470400
106.99999382	0.00000000	-5.24114100
107.19999381	0.00000000	-6.87746000
107.39999379	0.00000000	-8.14468500
107.59999378	0.00000000	-8.55684000
107.79999377	0.00000000	-8.14468500
107.99999376	0.00000000	-6.87746000
108.19999375	0.00000000	-5.19192900
108.39999374	0.00000000	-3.51254900
108.59999372	0.00000000	-2.23917300
108.79999371	0.00000000	-1.77780500
