Time	Channel A	Channel B
(us)	(V)	(mV)

-4.49999956	0.00000000	-5.19192900
-4.29999957	0.00000000	-5.19192900
-4.09999958	0.00000000	-5.19192900
-3.89999959	0.00000000	-5.19192900
-3.69999960	0.00000000	-5.19192900
-3.49999962	0.00000000	-5.19192900
-3.29999963	0.00000000	-5.19192900
-3.09999964	0.00000000	-5.19192900
-2.89999965	0.00000000	-5.19192900
-2.69999966	0.00000000	-5.19192900
-2.49999968	0.00000000	-5.19192900
-2.29999969	0.00000000	-5.19192900
-2.09999970	0.00000000	-5.19192900
-1.89999971	0.00000000	-5.19192900
-1.69999972	0.00000000	-5.19192900
-1.49999973	0.00000000	-5.19192900
-1.29999975	0.00000000	-5.19192900
-1.09999976	0.00000000	-5.19192900
-0.89999977	0.00000000	-5.19192900
-0.69999978	0.00000000	-5.19192900
-0.49999979	0.00000000	-5.19192900
-0.29999981	0.35125490	-5.19192900
-0.09999982	0.70250980	-5.19192900
0.10000017	1.05376500	-5.19192900
0.30000016	1.05376500	-5.19192900
0.50000015	0.70250980	-5.19192900
0.70000013	0.17531990	-5.19192900
0.90000012	-0.87844490	-5.19192900
1.10000011	-1.75689000	-5.19192900
1.30000010	-2.63533500	-5.19192900
1.50000009	-2.81127000	-5.19192900
1.70000008	-2.28408000	-5.19192900
1.90000006	-0.70250980	-5.19192900
2.10000005	1.22970000	-5.19192900
2.30000004	3.33846000	-5.19192900
2.50000003	4.91941500	-5.19192900
2.70000002	5.27128500	-5.19192900
2.90000000	4.39283900	-5.19192900
3.09999999	2.10814500	-5.19192900
3.29999998	-1.05376500	-5.19192900
3.49999997	-4.56816000	-5.19192900
3.69999996	-7.02817400	-5.14271600
3.89999994	-8.08255400	-4.73056000
4.09999993	-7.02817400	-3.97391700
4.29999992	-4.04096900	-3.97391700
4.49999991	0.17531990	-4.73056000
4.69999990	4.74409400	-5.14271600
4.89999989	8.08255400	-5.19192900
5.09999987	9.48818900	-5.19192900
5.29999986	8.43380900	-5.19192900
5.49999985	5.44660400	-5.19192900
5.69999984	0.87844490	-5.19192900
5.89999983	-3.86565000	-5.19192900
6.09999981	-7.73129900	-5.19192900
6.29999980	-9.48818900	-5.14271600
6.49999979	-8.78567900	-4.73056000
6.69999978	-5.97379400	-3.92470400
6.89999977	-1.93282500	-3.56176100
7.09999975	2.45940000	-3.92470400
7.29999974	5.79847400	-4.73056000
7.49999973	7.55536400	-5.14271600
7.69999972	7.37942900	-5.19192900
7.89999971	5.27128500	-5.19192900
8.09999970	2.28408000	-5.19192900
8.29999968	-1.05376500	-5.19192900
8.49999967	-3.68971500	-5.19192900
8.69999966	-5.09534900	-5.14271600
8.89999965	-4.91941500	-4.77977300
9.09999964	-3.68971500	-4.37992100
9.29999962	-1.93282500	-4.77977300
9.49999961	0.00000000	-5.14271600
9.69999960	1.58095500	-5.19192900
9.89999959	2.45940000	-5.19192900
10.09999958	2.45940000	-5.19192900
10.29999956	1.75689000	-5.19192900
10.49999955	0.87844490	-5.19192900
10.69999954	0.00000000	-5.19192900
10.89999953	-0.70250980	-5.19192900
11.09999952	-0.87844490	-5.19192900
11.29999951	-0.87844490	-5.19192900
11.49999949	-0.70250980	-5.19192900
11.69999948	-0.52657480	-5.19192900
11.89999947	-0.17531990	-5.19192900
12.09999946	0.00000000	-5.19192900
12.29999945	0.00000000	-5.19192900
12.49999943	-0.17531990	-5.19192900
12.69999942	-0.17531990	-5.19192900
12.89999941	-0.17531990	-5.19192900
13.09999940	-0.17531990	-5.14271600
13.29999939	-0.17531990	-4.77977300
13.49999937	0.00000000	-4.37992100
13.69999936	0.00000000	-4.77977300
13.89999935	0.00000000	-5.14271600
14.09999934	0.00000000	-5.19192900
14.29999933	0.00000000	-5.19192900
14.49999932	0.00000000	-5.19192900
14.69999930	0.00000000	-5.19192900
14.89999929	0.00000000	-5.19192900
15.09999928	0.00000000	-5.19192900
15.29999927	0.00000000	-5.19192900
15.49999926	0.00000000	-5.19192900
15.69999924	0.00000000	-5.19192900
15.89999923	0.00000000	-5.19192900
16.09999922	0.00000000	-5.19192900
16.29999921	0.00000000	-5.19192900
16.49999920	0.00000000	-5.19192900
16.69999919	0.00000000	-5.19192900
16.89999917	0.00000000	-5.19192900
17.09999916	0.00000000	-5.19192900
17.29999915	0.00000000	-5.19192900
17.49999914	0.00000000	-5.19192900
17.69999913	0.00000000	-5.19192900
17.89999911	0.00000000	-5.19192900
18.09999910	0.00000000	-5.19192900
18.29999909	0.00000000	-5.19192900
18.49999908	0.00000000	-5.19192900
18.69999907	0.00000000	-5.19192900
18.89999905	0.00000000	-5.19192900
19.09999904	0.00000000	-5.19192900
19.29999903	-0.17531990	-5.19192900
19.49999902	0.00000000	-5.19192900
19.69999901	0.00000000	-5.19192900
19.89999900	0.00000000	-5.19192900
20.09999898	0.00000000	-5.19192900
20.29999897	0.00000000	-5.19192900
20.49999896	0.00000000	-5.19192900
20.69999895	0.00000000	-5.19192900
20.89999894	0.00000000	-5.19192900
21.09999892	0.00000000	-5.19192900
21.29999891	0.00000000	-5.19192900
21.49999890	0.00000000	-5.19192900
21.69999889	0.00000000	-5.19192900
21.89999888	0.00000000	-5.19192900
22.09999886	0.00000000	-5.19192900
22.29999885	0.00000000	-5.19192900
22.49999884	0.00000000	-5.19192900
22.69999883	0.00000000	-5.19192900
22.89999882	0.00000000	-5.19192900
23.09999881	0.00000000	-5.24114100
23.29999879	0.00000000	-5.65329700
23.49999878	0.00000000	-6.46530500
23.69999877	0.00000000	-6.87746000
23.89999876	0.00000000	-6.87746000
24.09999875	0.00000000	-6.46530500
24.29999873	0.00000000	-5.60408400
24.49999872	0.00000000	-4.73056000
24.69999871	0.00000000	-3.41412400
24.89999870	0.00000000	-1.82701800
25.09999869	0.00000000	-0.96579720
25.29999867	0.00000000	-1.36565000
25.49999866	0.00000000	-2.23917300
25.69999865	0.00000000	-4.02313000
25.89999864	0.00000000	-6.97588500
26.09999863	0.00000000	-10.34080000
26.29999862	0.00000000	-13.24434000
26.49999860	0.00000000	-14.51772000
26.69999859	0.00000000	-13.65650000
26.89999858	0.00000000	-11.05438000
27.09999857	0.00000000	-6.31766700
27.29999856	0.00000000	0.00000000
27.49999854	0.00000000	6.31766700
27.69999853	0.00000000	10.95595000
27.89999852	0.00000000	12.58612000
28.09999851	0.00000000	10.34695000
28.29999850	0.00000000	3.51870100
28.49999848	0.00000000	-7.02509800
28.69999847	0.00000000	-18.38706000
28.89999846	0.00000000	-27.71284000
29.09999845	0.00000000	-32.76329000
29.29999844	0.00000000	-32.25270000
29.49999843	0.00000000	-25.32603000
29.69999841	0.00000000	-12.22933000
29.89999840	0.00000000	4.27534400
30.09999839	0.00000000	19.87574000
30.29999838	0.00000000	31.28691000
30.49999837	0.00000000	34.95940000
30.69999835	0.00000000	29.45374000
30.89999834	0.00000000	15.39739000
31.09999833	0.00000000	-4.52755900
31.29999832	0.00000000	-26.49483000
31.49999831	0.00000000	-45.04183000
31.69999829	0.00000000	-55.13656000
31.89999828	0.00000000	-54.21383000
32.09999827	0.00000000	-41.52928000
32.29999826	0.00000000	-19.92495000
32.49999825	0.00000000	5.50565900
32.69999824	0.00000000	30.05659000
32.89999822	0.00000000	47.69931000
33.09999821	0.00000000	53.60482000
33.29999820	0.00000000	45.96456000
33.49999819	0.00000000	26.55019000
33.69999818	0.00000000	-0.14763780
33.89999816	0.00000000	-28.07579000
34.09999815	0.00000000	-51.35949000
34.29999814	0.00000000	-64.40699000
34.49999813	0.00000000	-64.04404000
34.69999812	0.00000000	-50.49828000
34.89999810	0.00000000	-27.20841000
35.09999809	0.00000000	1.17495100
35.29999808	0.00000000	28.18036000
35.49999807	0.00000000	47.23794000
35.69999806	0.00000000	54.01698000
35.89999805	0.00000000	47.28715000
36.09999803	0.00000000	28.69094000
36.29999802	0.00000000	2.95275600
36.49999801	0.00000000	-23.73892000
36.69999800	0.00000000	-45.30019000
36.89999799	0.00000000	-57.16658000
37.09999797	0.00000000	-56.36073000
37.29999796	0.00000000	-43.76845000
37.49999795	0.00000000	-23.08071000
37.69999794	0.00000000	0.56594490
37.89999793	0.00000000	21.30290000
38.09999791	0.00000000	34.45497000
38.29999790	0.00000000	37.45694000
38.49999789	0.00000000	29.90895000
38.69999788	0.00000000	14.37008000
38.89999787	0.00000000	-4.58907500
39.09999786	0.00000000	-21.91191000
39.29999784	0.00000000	-33.37844000
39.49999783	0.00000000	-36.84178000
39.69999782	0.00000000	-32.30191000
39.89999781	0.00000000	-21.80118000
40.09999780	0.00000000	-8.70447700
40.29999778	0.00000000	3.93085600
40.49999777	0.00000000	12.78912000
40.69999776	0.00000000	15.39739000
40.89999775	0.00000000	12.18012000
41.09999774	0.00000000	5.04429100
41.29999772	0.00000000	-3.36491100
41.49999771	0.00000000	-11.00517000
41.69999770	0.00000000	-16.04946000
41.89999769	0.00000000	-17.37205000
42.09999768	0.00000000	-14.92372000
42.29999767	0.00000000	-10.34080000
42.49999765	0.00000000	-5.29035400
42.69999764	0.00000000	-1.11343500
42.89999763	0.00000000	0.61515740
43.09999762	0.00000000	-0.14763780
43.29999761	0.00000000	-2.18996000
43.49999759	0.00000000	-4.68134800
43.69999758	0.00000000	-6.36687900
43.89999757	0.00000000	-6.82824800
44.09999756	0.00000000	-6.41609200
44.29999755	0.00000000	-5.19192900
44.49999753	0.00000000	-3.97391700
44.69999752	0.00000000	-3.56176100
44.89999751	0.00000000	-4.02313000
45.09999750	0.00000000	-5.70251000
45.29999749	0.00000000	-8.14468500
45.49999748	0.00000000	-9.78100300
45.69999746	0.00000000	-9.78100300
45.89999745	0.00000000	-8.09547100
46.09999744	0.00000000	-5.14271600
46.29999743	0.00000000	-1.77780500
46.49999742	0.00000000	1.12573800
46.69999740	0.00000000	2.39296200
46.89999739	0.00000000	1.58095500
47.09999738	0.00000000	-0.55979330
47.29999737	0.00000000	-3.97391700
47.49999736	0.00000000	-8.14468500
47.69999734	0.00000000	-11.50960000
47.89999733	0.00000000	-13.24434000
48.09999732	0.00000000	-13.24434000
48.29999731	0.00000000	-11.50960000
48.49999730	0.00000000	-8.14468500
48.69999729	0.00000000	-3.97391700
48.89999727	0.00000000	-0.55979330
49.09999726	0.00000000	1.58095500
49.29999725	0.00000000	2.39296200
49.49999724	0.00000000	1.17495100
49.69999723	0.00000000	-1.32258800
49.89999721	0.00000000	-3.87549200
50.09999720	0.00000000	-6.46530500
50.29999719	0.00000000	-8.55684000
50.49999718	0.00000000	-9.87942800
50.69999717	0.00000000	-10.29158000
50.89999715	0.00000000	-9.87942800
51.09999714	0.00000000	-8.60605200
51.29999713	0.00000000	-6.92667200
51.49999712	0.00000000	-5.19192900
51.69999711	0.00000000	-3.51254900
51.89999710	0.00000000	-2.18996000
52.09999708	0.00000000	-1.36565000
52.29999707	0.00000000	-0.96579720
52.49999706	0.00000000	-1.77780500
52.69999705	0.00000000	-3.00196800
52.89999704	0.00000000	-3.97391700
53.09999702	0.00000000	-5.65329700
53.29999701	0.00000000	-7.73868000
53.49999700	0.00000000	-8.96899500
53.69999699	0.00000000	-9.46727400
53.89999698	0.00000000	-8.96899500
54.09999696	0.00000000	-7.73868000
54.29999695	0.00000000	-5.60408400
54.49999694	0.00000000	-3.51254900
54.69999693	0.00000000	-1.77780500
54.89999692	0.00000000	-0.60900590
55.09999691	0.00000000	-1.01501000
55.29999689	0.00000000	-3.05118100
55.49999688	0.00000000	-5.14271600
55.69999687	0.00000000	-6.92667200
55.89999686	0.00000000	-8.60605200
56.09999685	0.00000000	-9.83021600
56.29999683	0.00000000	-9.78100300
56.49999682	0.00000000	-8.14468500
56.69999681	0.00000000	-5.65329700
56.89999680	0.00000000	-3.51254900
57.09999679	0.00000000	-1.77780500
57.29999677	0.00000000	-0.60900590
57.49999676	0.00000000	-1.01501000
57.69999675	0.00000000	-3.10039400
57.89999674	0.00000000	-5.60408400
58.09999673	0.00000000	-8.19389700
58.29999672	0.00000000	-10.24237000
58.49999670	0.00000000	-11.10359000
58.69999669	0.00000000	-10.24237000
58.89999668	0.00000000	-8.14468500
59.09999667	0.00000000	-5.14271600
59.29999666	0.00000000	-1.82701800
59.49999664	0.00000000	0.71358260
59.69999663	0.00000000	1.53174200
59.89999662	0.00000000	0.71358260
60.09999661	0.00000000	-1.82701800
60.29999660	0.00000000	-5.19192900
60.49999658	0.00000000	-8.60605200
60.69999657	0.00000000	-11.50960000
60.89999656	0.00000000	-12.78297000
61.09999655	0.00000000	-11.97096000
61.29999654	0.00000000	-9.87942800
61.49999653	0.00000000	-6.87746000
61.69999651	0.00000000	-3.51254900
61.89999650	0.00000000	-0.55979330
62.09999649	0.00000000	1.11958700
62.29999648	0.00000000	1.11958700
62.49999647	0.00000000	-0.51058070
62.69999645	0.00000000	-3.00196800
62.89999644	0.00000000	-5.14271600
63.09999643	0.00000000	-6.92667200
63.29999642	0.00000000	-8.60605200
63.49999641	0.00000000	-9.83021600
63.69999639	0.00000000	-9.83021600
63.89999638	0.00000000	-8.65526600
64.09999637	0.00000000	-7.38804100
64.29999636	0.00000000	-6.46530500
64.49999635	0.00000000	-5.19192900
64.69999634	0.00000000	-3.92470400
64.89999632	0.00000000	-3.00196800
65.09999631	0.00000000	-1.67938000
65.29999630	0.00000000	-0.09842519
65.49999629	0.00000000	0.71358260
65.69999628	0.00000000	-0.14763780
65.89999626	0.00000000	-2.23917300
66.09999625	0.00000000	-5.24114100
66.29999624	0.00000000	-8.60605200
66.49999623	0.00000000	-11.55881000
66.69999622	0.00000000	-13.29355000
66.89999620	0.00000000	-13.70571000
67.09999619	0.00000000	-12.78912000
67.29999618	0.00000000	-9.78100300
67.49999617	0.00000000	-5.14271600
67.69999616	0.00000000	-0.09842519
67.89999615	0.00000000	4.12770700
68.09999613	0.00000000	6.21924200
68.29999612	0.00000000	5.81323800
68.49999611	0.00000000	2.80511800
68.69999610	0.00000000	-2.23917300
68.89999609	0.00000000	-8.19389700
69.09999607	0.00000000	-13.65650000
69.29999606	0.00000000	-17.47047000
69.49999605	0.00000000	-18.28863000
69.69999604	0.00000000	-16.19710000
69.89999603	0.00000000	-11.55881000
70.09999601	0.00000000	-5.60408400
70.29999600	0.00000000	0.31373030
70.49999599	0.00000000	5.40108300
70.69999598	0.00000000	7.89862200
70.89999597	0.00000000	7.49261800
71.09999596	0.00000000	4.12770700
71.29999594	0.00000000	-1.37180100
71.49999593	0.00000000	-7.28961600
71.69999592	0.00000000	-12.83834000
71.89999591	0.00000000	-16.56004000
72.09999590	0.00000000	-17.47047000
72.29999588	0.00000000	-15.38509000
72.49999587	0.00000000	-11.60802000
72.69999586	0.00000000	-6.87746000
72.89999585	0.00000000	-1.82701800
73.09999584	0.00000000	2.39911400
73.29999582	0.00000000	4.53371000
73.49999581	0.00000000	4.53371000
73.69999580	0.00000000	2.39911400
73.89999579	0.00000000	-1.77780500
74.09999578	0.00000000	-6.41609200
74.29999577	0.00000000	-10.29158000
74.49999575	0.00000000	-13.24434000
74.69999574	0.00000000	-14.46850000
74.89999573	0.00000000	-13.24434000
75.09999572	0.00000000	-10.29158000
75.29999571	0.00000000	-6.46530500
75.49999569	0.00000000	-2.23917300
75.69999568	0.00000000	1.12573800
75.89999567	0.00000000	2.85433100
76.09999566	0.00000000	2.80511800
76.29999565	0.00000000	0.66437010
76.49999563	0.00000000	-3.51254900
76.69999562	0.00000000	-8.14468500
76.89999561	0.00000000	-11.97096000
77.09999560	0.00000000	-14.51772000
77.29999559	0.00000000	-14.87451000
77.49999558	0.00000000	-12.78297000
77.69999556	0.00000000	-8.55684000
77.89999555	0.00000000	-3.46333600
78.09999554	0.00000000	1.58095500
78.29999553	0.00000000	5.35187000
78.49999552	0.00000000	6.21924200
78.69999550	0.00000000	4.53371000
78.89999549	0.00000000	0.66437010
79.09999548	0.00000000	-5.24114100
79.29999547	0.00000000	-11.55881000
79.49999546	0.00000000	-16.60925000
79.69999544	0.00000000	-19.15600000
79.89999543	0.00000000	-18.28863000
80.09999542	0.00000000	-14.46850000
80.29999541	0.00000000	-8.14468500
80.49999540	0.00000000	-0.96579720
80.69999539	0.00000000	4.99507900
80.89999537	0.00000000	9.22121000
81.09999536	0.00000000	10.44537000
81.29999535	0.00000000	7.89862200
81.49999534	0.00000000	2.44832700
81.69999533	0.00000000	-4.77977300
81.89999531	0.00000000	-11.97096000
82.09999530	0.00000000	-17.93184000
82.29999529	0.00000000	-21.24754000
82.49999528	0.00000000	-20.88459000
82.69999527	0.00000000	-17.07062000
82.89999525	0.00000000	-11.15280000
83.09999524	0.00000000	-3.92470400
83.29999523	0.00000000	2.85433100
83.49999522	0.00000000	7.94783400
83.69999521	0.00000000	10.49459000
83.89999520	0.00000000	9.63336600
84.09999518	0.00000000	5.86245000
84.29999517	0.00000000	-0.09842519
84.49999516	0.00000000	-6.87746000
84.69999515	0.00000000	-13.29355000
84.89999514	0.00000000	-18.33784000
85.09999512	0.00000000	-20.88459000
85.29999511	0.00000000	-20.07259000
85.49999510	0.00000000	-16.65846000
85.69999509	0.00000000	-11.10359000
85.89999508	0.00000000	-3.92470400
86.09999506	0.00000000	2.80511800
86.29999505	0.00000000	7.54183000
86.49999504	0.00000000	9.68257800
86.69999503	0.00000000	9.27657400
86.89999502	0.00000000	6.21924200
87.09999501	0.00000000	0.71358260
87.29999499	0.00000000	-6.46530500
87.49999498	0.00000000	-13.19513000
87.69999497	0.00000000	-17.93184000
87.89999496	0.00000000	-20.07259000
88.09999495	0.00000000	-19.66658000
88.29999493	0.00000000	-16.60925000
88.49999492	0.00000000	-11.10359000
88.69999491	0.00000000	-3.92470400
88.89999490	0.00000000	2.80511800
89.09999489	0.00000000	7.49261800
89.29999487	0.00000000	9.22121000
89.49999486	0.00000000	7.94783400
89.69999485	0.00000000	4.17691900
89.89999484	0.00000000	-1.37180100
90.09999483	0.00000000	-7.28961600
90.29999482	0.00000000	-12.83834000
90.49999480	0.00000000	-16.60925000
90.69999479	0.00000000	-17.93184000
90.89999478	0.00000000	-16.65846000
91.09999477	0.00000000	-13.24434000
91.29999476	0.00000000	-8.19389700
91.49999474	0.00000000	-2.70054100
91.69999473	0.00000000	1.53174200
91.89999472	0.00000000	4.12770700
92.09999471	0.00000000	4.53371000
92.29999470	0.00000000	2.90354300
92.49999468	0.00000000	-0.09842519
92.69999467	0.00000000	-3.87549200
92.89999466	0.00000000	-7.68946800
93.09999465	0.00000000	-10.24237000
93.29999464	0.00000000	-11.55881000
93.49999463	0.00000000	-11.55881000
93.69999461	0.00000000	-10.29158000
93.89999460	0.00000000	-8.19389700
94.09999459	0.00000000	-5.65329700
94.29999458	0.00000000	-3.56176100
94.49999457	0.00000000	-2.23917300
94.69999455	0.00000000	-1.77780500
94.89999454	0.00000000	-1.77780500
95.09999453	0.00000000	-2.23917300
95.29999452	0.00000000	-3.51254900
95.49999451	0.00000000	-5.14271600
95.69999449	0.00000000	-6.41609200
95.89999448	0.00000000	-6.87746000
96.09999447	0.00000000	-6.92667200
96.29999446	0.00000000	-6.92667200
96.49999445	0.00000000	-6.92667200
96.69999444	0.00000000	-6.87746000
96.89999442	0.00000000	-6.46530500
97.09999441	0.00000000	-5.65329700
97.29999440	0.00000000	-5.19192900
97.49999439	0.00000000	-4.73056000
97.69999438	0.00000000	-3.92470400
97.89999436	0.00000000	-3.51254900
98.09999435	0.00000000	-3.46333600
98.29999434	0.00000000	-3.51254900
98.49999433	0.00000000	-3.92470400
98.69999432	0.00000000	-4.77977300
98.89999430	0.00000000	-5.60408400
99.09999429	0.00000000	-6.46530500
99.29999428	0.00000000	-6.87746000
99.49999427	0.00000000	-6.92667200
99.69999426	0.00000000	-6.92667200
99.89999425	0.00000000	-6.87746000
100.09999423	0.00000000	-6.41609200
100.29999422	0.00000000	-5.19192900
100.49999421	0.00000000	-3.97391700
100.69999420	0.00000000	-3.51254900
100.89999419	0.00000000	-3.46333600
101.09999417	0.00000000	-3.46333600
101.29999416	0.00000000	-3.51254900
101.49999415	0.00000000	-3.97391700
101.69999414	0.00000000	-5.19192900
101.89999413	0.00000000	-6.41609200
102.09999411	0.00000000	-6.87746000
102.29999410	0.00000000	-6.92667200
102.49999409	0.00000000	-6.92667200
102.69999408	0.00000000	-6.87746000
102.89999407	0.00000000	-6.46530500
103.09999406	0.00000000	-5.60408400
103.29999404	0.00000000	-4.77977300
103.49999403	0.00000000	-3.92470400
103.69999402	0.00000000	-3.56176100
103.89999401	0.00000000	-3.92470400
104.09999400	0.00000000	-4.77977300
104.29999398	0.00000000	-5.60408400
104.49999397	0.00000000	-6.46530500
104.69999396	0.00000000	-6.87746000
104.89999395	0.00000000	-6.92667200
105.09999394	0.00000000	-6.87746000
105.29999392	0.00000000	-6.46530500
105.49999391	0.00000000	-5.60408400
105.69999390	0.00000000	-4.77977300
105.89999389	0.00000000	-3.92470400
106.09999388	0.00000000	-3.56176100
106.29999387	0.00000000	-3.92470400
106.49999385	0.00000000	-4.73056000
106.69999384	0.00000000	-5.19192900
106.89999383	0.00000000	-5.70251000
107.09999382	0.00000000	-6.92667200
107.29999381	0.00000000	-8.14468500
107.49999379	0.00000000	-8.55684000
107.69999378	0.00000000	-8.19389700
107.89999377	0.00000000	-7.33882900
108.09999376	0.00000000	-6.46530500
108.29999375	0.00000000	-5.14271600
108.49999374	0.00000000	-3.51254900
108.69999372	0.00000000	-2.28838600
108.89999371	0.00000000	-2.23917300
