Time	Channel A	Channel B
(us)	(V)	(mV)

-4.59999956	0.00000000	-5.19192900
-4.39999957	0.00000000	-5.19192900
-4.19999958	0.00000000	-5.19192900
-3.99999959	0.00000000	-5.19192900
-3.79999960	0.00000000	-5.19192900
-3.59999962	0.00000000	-5.24114100
-3.39999963	0.00000000	-5.60408400
-3.19999964	0.00000000	-6.00393600
-2.99999965	0.00000000	-5.60408400
-2.79999966	0.00000000	-5.24114100
-2.59999968	0.00000000	-5.19192900
-2.39999969	0.00000000	-5.19192900
-2.19999970	0.00000000	-5.19192900
-1.99999971	0.00000000	-5.19192900
-1.79999972	0.00000000	-5.19192900
-1.59999973	0.00000000	-5.19192900
-1.39999975	0.00000000	-5.19192900
-1.19999976	0.00000000	-5.19192900
-0.99999977	0.00000000	-5.19192900
-0.79999978	0.00000000	-5.19192900
-0.59999979	0.00000000	-5.19192900
-0.39999981	0.17531990	-5.19192900
-0.19999982	0.52657480	-5.19192900
0.00000017	0.87844490	-5.19192900
0.20000016	1.05376500	-5.19192900
0.40000015	0.87844490	-5.19192900
0.60000013	0.35125490	-5.19192900
0.80000012	-0.52657480	-5.19192900
1.00000011	-1.40563500	-5.19192900
1.20000010	-2.28408000	-5.19192900
1.40000009	-2.81127000	-5.19192900
1.60000008	-2.63533500	-5.14271600
1.80000006	-1.40563500	-4.77977300
2.00000005	0.35125490	-4.37992100
2.20000004	2.45940000	-4.77977300
2.40000003	4.21690500	-5.14271600
2.60000002	5.27128500	-5.19192900
2.80000000	4.91941500	-5.19192900
2.99999999	3.16252500	-5.19192900
3.19999998	0.17531990	-5.19192900
3.39999997	-3.16252500	-5.19192900
3.59999996	-6.14972900	-5.19192900
3.79999994	-7.90661900	-5.14271600
3.99999993	-7.55536400	-4.73056000
4.19999992	-5.44660400	-3.97391700
4.39999991	-1.58095500	-3.97391700
4.59999990	2.98659000	-4.73056000
4.79999989	6.85223900	-5.14271600
4.99999987	9.13693400	-5.19192900
5.19999986	9.13693400	-5.19192900
5.39999985	6.85223900	-5.19192900
5.59999984	2.81127000	-5.19192900
5.79999983	-2.10814500	-5.19192900
5.99999981	-6.32566500	-5.19192900
6.19999980	-8.96099900	-5.14271600
6.39999979	-9.31225400	-4.73056000
6.59999978	-7.37942900	-3.92470400
6.79999977	-3.68971500	-3.51254900
6.99999975	0.70250980	-3.51254900
7.19999974	4.56816000	-3.92470400
7.39999973	7.02817400	-4.73056000
7.59999972	7.73129900	-5.19192900
7.79999971	6.32566500	-5.65329700
7.99999970	3.51377900	-6.41609200
8.19999968	0.17531990	-6.41609200
8.39999967	-2.63533500	-5.65329700
8.59999966	-4.74409400	-5.24114100
8.79999965	-5.09534900	-5.19192900
8.99999964	-4.39283900	-5.19192900
9.19999962	-2.63533500	-5.19192900
9.39999961	-0.70250980	-5.19192900
9.59999960	1.05376500	-5.19192900
9.79999959	2.28408000	-5.19192900
9.99999958	2.45940000	-5.19192900
10.19999956	2.10814500	-5.19192900
10.39999955	1.22970000	-5.19192900
10.59999954	0.35125490	-5.19192900
10.79999953	-0.35125490	-5.19192900
10.99999952	-0.87844490	-5.19192900
11.19999951	-0.87844490	-5.19192900
11.39999949	-0.87844490	-5.19192900
11.59999948	-0.52657480	-5.19192900
11.79999947	-0.35125490	-5.19192900
11.99999946	0.00000000	-5.19192900
12.19999945	0.00000000	-5.19192900
12.39999943	0.00000000	-5.19192900
12.59999942	-0.17531990	-5.19192900
12.79999941	-0.17531990	-5.19192900
12.99999940	-0.17531990	-5.19192900
13.19999939	-0.17531990	-5.19192900
13.39999937	0.00000000	-5.19192900
13.59999936	0.00000000	-5.19192900
13.79999935	0.00000000	-5.19192900
13.99999934	0.00000000	-5.19192900
14.19999933	0.00000000	-5.19192900
14.39999932	0.00000000	-5.19192900
14.59999930	0.00000000	-5.19192900
14.79999929	0.00000000	-5.19192900
14.99999928	0.00000000	-5.19192900
15.19999927	0.00000000	-5.19192900
15.39999926	0.00000000	-5.19192900
15.59999924	0.00000000	-5.19192900
15.79999923	0.00000000	-5.19192900
15.99999922	0.00000000	-5.19192900
16.19999921	0.00000000	-5.19192900
16.39999920	0.00000000	-5.19192900
16.59999919	0.00000000	-5.19192900
16.79999917	0.00000000	-5.19192900
16.99999916	0.00000000	-5.19192900
17.19999915	0.00000000	-5.19192900
17.39999914	0.00000000	-5.19192900
17.59999913	0.00000000	-5.19192900
17.79999911	0.00000000	-5.19192900
17.99999910	0.00000000	-5.19192900
18.19999909	0.00000000	-5.19192900
18.39999908	0.00000000	-5.19192900
18.59999907	0.00000000	-5.19192900
18.79999905	0.00000000	-5.19192900
18.99999904	0.00000000	-5.14271600
19.19999903	0.00000000	-4.77977300
19.39999902	0.00000000	-4.37992100
19.59999901	0.00000000	-4.77977300
19.79999900	0.00000000	-5.14271600
19.99999898	0.00000000	-5.19192900
20.19999897	0.00000000	-5.19192900
20.39999896	0.00000000	-5.14271600
20.59999895	0.00000000	-4.77977300
20.79999894	0.00000000	-4.37992100
20.99999892	0.00000000	-4.77977300
21.19999891	0.00000000	-5.14271600
21.39999890	0.00000000	-5.19192900
21.59999889	0.00000000	-5.19192900
21.79999888	0.00000000	-5.19192900
21.99999886	0.00000000	-5.19192900
22.19999885	0.00000000	-5.19192900
22.39999884	0.00000000	-5.19192900
22.59999883	0.00000000	-5.19192900
22.79999882	0.00000000	-5.19192900
22.99999881	0.00000000	-5.19192900
23.19999879	0.00000000	-5.24114100
23.39999878	0.00000000	-5.65329700
23.59999877	0.00000000	-6.46530500
23.79999876	0.00000000	-6.82824800
23.99999875	0.00000000	-6.46530500
24.19999873	0.00000000	-5.60408400
24.39999872	0.00000000	-4.73056000
24.59999871	0.00000000	-3.41412400
24.79999870	0.00000000	-1.77780500
24.99999869	0.00000000	-0.55979330
25.19999867	0.00000000	-0.55979330
25.39999866	0.00000000	-1.77780500
25.59999865	0.00000000	-3.51254900
25.79999864	0.00000000	-5.70251000
25.99999863	0.00000000	-8.65526600
26.19999862	0.00000000	-11.60802000
26.39999860	0.00000000	-13.65650000
26.59999859	0.00000000	-14.00714000
26.79999858	0.00000000	-11.41117000
26.99999857	0.00000000	-6.41609200
27.19999856	0.00000000	-0.41215550
27.39999854	0.00000000	5.50565900
27.59999853	0.00000000	10.59301000
27.79999852	0.00000000	12.99828000
27.99999851	0.00000000	11.66954000
28.19999850	0.00000000	5.66560000
28.39999848	0.00000000	-4.02313000
28.59999847	0.00000000	-15.07136000
28.79999846	0.00000000	-25.16609000
28.99999845	0.00000000	-31.88976000
29.19999844	0.00000000	-32.61565000
29.39999843	0.00000000	-26.64247000
29.59999841	0.00000000	-14.37008000
29.79999840	0.00000000	1.27337600
29.99999839	0.00000000	16.56004000
30.19999838	0.00000000	28.78937000
30.39999837	0.00000000	34.60261000
30.59999835	0.00000000	31.54527000
30.79999834	0.00000000	19.61737000
30.99999833	0.00000000	0.56594490
31.19999832	0.00000000	-21.39518000
31.39999831	0.00000000	-40.81570000
31.59999829	0.00000000	-53.04503000
31.79999828	0.00000000	-54.67519000
31.99999827	0.00000000	-44.94341000
32.19999826	0.00000000	-25.78740000
32.39999825	0.00000000	-0.81200780
32.59999824	0.00000000	24.91388000
32.79999822	0.00000000	44.33440000
32.99999821	0.00000000	52.79897000
33.19999820	0.00000000	48.56053000
33.39999819	0.00000000	32.00664000
33.59999818	0.00000000	7.08046200
33.79999816	0.00000000	-20.88459000
33.99999815	0.00000000	-45.39862000
34.19999814	0.00000000	-61.09129000
34.39999813	0.00000000	-64.40699000
34.59999812	0.00000000	-54.21383000
34.79999810	0.00000000	-32.25270000
34.99999809	0.00000000	-3.97391700
35.19999808	0.00000000	23.54207000
35.39999807	0.00000000	44.28518000
35.59999806	0.00000000	53.60482000
35.79999805	0.00000000	49.42790000
35.99999803	0.00000000	33.37844000
36.19999802	0.00000000	9.27657400
36.39999801	0.00000000	-17.37205000
36.59999800	0.00000000	-40.20669000
36.79999799	0.00000000	-54.21383000
36.99999797	0.00000000	-56.36073000
37.19999796	0.00000000	-46.67199000
37.39999795	0.00000000	-27.66363000
37.59999794	0.00000000	-4.07234200
37.79999793	0.00000000	17.93799000
37.99999791	0.00000000	33.18159000
38.19999790	0.00000000	38.73031000
38.39999789	0.00000000	33.28002000
38.59999788	0.00000000	19.05758000
38.79999787	0.00000000	0.51058070
38.99999786	0.00000000	-17.27362000
39.19999784	0.00000000	-30.41954000
39.39999783	0.00000000	-36.38041000
39.59999782	0.00000000	-33.88287000
39.79999781	0.00000000	-24.29872000
39.99999780	0.00000000	-10.85138000
40.19999778	0.00000000	2.25147600
40.39999777	0.00000000	11.98327000
40.59999776	0.00000000	16.25246000
40.79999775	0.00000000	14.22244000
40.99999774	0.00000000	7.59104300
41.19999772	0.00000000	-1.27337600
41.39999771	0.00000000	-9.68257800
41.59999770	0.00000000	-15.59424000
41.79999769	0.00000000	-17.37205000
41.99999768	0.00000000	-15.33587000
42.19999767	0.00000000	-11.15280000
42.39999765	0.00000000	-5.70251000
42.59999764	0.00000000	-1.11343500
42.79999763	0.00000000	1.07037400
42.99999762	0.00000000	1.11958700
43.19999761	0.00000000	-0.51058070
43.39999759	0.00000000	-3.00196800
43.59999758	0.00000000	-5.09350300
43.79999757	0.00000000	-6.36687900
43.99999756	0.00000000	-6.36687900
44.19999755	0.00000000	-5.19192900
44.39999753	0.00000000	-3.97391700
44.59999752	0.00000000	-3.56176100
44.79999751	0.00000000	-3.97391700
44.99999750	0.00000000	-5.24114100
45.19999749	0.00000000	-6.92667200
45.39999748	0.00000000	-8.55684000
45.59999746	0.00000000	-9.31963500
45.79999745	0.00000000	-8.04626000
45.99999744	0.00000000	-5.14271600
46.19999743	0.00000000	-1.77780500
46.39999742	0.00000000	1.17495100
46.59999740	0.00000000	2.85433100
46.79999739	0.00000000	2.85433100
46.99999738	0.00000000	1.12573800
47.19999737	0.00000000	-2.23917300
47.39999736	0.00000000	-6.46530500
47.59999734	0.00000000	-10.24237000
47.79999733	0.00000000	-12.83834000
47.99999732	0.00000000	-13.60728000
48.19999731	0.00000000	-12.37697000
48.39999730	0.00000000	-8.96899500
48.59999729	0.00000000	-4.77977300
48.79999727	0.00000000	-0.55979330
48.99999726	0.00000000	2.39911400
49.19999725	0.00000000	3.26648600
49.39999724	0.00000000	2.49753900
49.59999723	0.00000000	0.36294290
49.79999721	0.00000000	-2.18996000
49.99999720	0.00000000	-5.19192900
50.19999719	0.00000000	-8.09547100
50.39999718	0.00000000	-9.83021600
50.59999717	0.00000000	-10.29158000
50.79999715	0.00000000	-9.92864100
50.99999714	0.00000000	-9.01820900
51.19999713	0.00000000	-7.73868000
51.39999712	0.00000000	-5.60408400
51.59999711	0.00000000	-3.51254900
51.79999710	0.00000000	-1.72859200
51.99999708	0.00000000	-0.04921259
52.19999707	0.00000000	1.16879900
52.39999706	0.00000000	1.16879900
52.59999705	0.00000000	-0.09842519
52.79999704	0.00000000	-2.18996000
52.99999702	0.00000000	-4.77977300
53.19999701	0.00000000	-7.28961600
53.39999700	0.00000000	-9.42421200
53.59999699	0.00000000	-10.24237000
53.79999698	0.00000000	-9.87942800
53.99999696	0.00000000	-8.55684000
54.19999695	0.00000000	-6.41609200
54.39999694	0.00000000	-3.46333600
54.59999693	0.00000000	-0.55979330
54.79999692	0.00000000	1.11958700
54.99999691	0.00000000	1.16879900
55.19999689	0.00000000	-0.09842519
55.39999688	0.00000000	-2.23917300
55.59999687	0.00000000	-5.19192900
55.79999686	0.00000000	-8.09547100
55.99999685	0.00000000	-9.78100300
56.19999683	0.00000000	-9.83021600
56.39999682	0.00000000	-8.55684000
56.59999681	0.00000000	-6.41609200
56.79999680	0.00000000	-3.46333600
56.99999679	0.00000000	-0.55979330
57.19999677	0.00000000	1.11958700
57.39999676	0.00000000	1.11958700
57.59999675	0.00000000	-0.55979330
57.79999674	0.00000000	-3.51254900
57.99999673	0.00000000	-6.87746000
58.19999672	0.00000000	-9.83021600
58.39999670	0.00000000	-11.46038000
58.59999669	0.00000000	-11.10359000
58.79999668	0.00000000	-8.96899500
58.99999667	0.00000000	-6.00393600
59.19999666	0.00000000	-2.18996000
59.39999664	0.00000000	1.12573800
59.59999663	0.00000000	2.85433100
59.79999662	0.00000000	2.85433100
59.99999661	0.00000000	1.12573800
60.19999660	0.00000000	-2.23917300
60.39999658	0.00000000	-6.41609200
60.59999657	0.00000000	-9.78100300
60.79999656	0.00000000	-11.50960000
60.99999655	0.00000000	-11.50960000
61.19999654	0.00000000	-9.83021600
61.39999653	0.00000000	-6.87746000
61.59999651	0.00000000	-3.51254900
61.79999650	0.00000000	-0.51058070
61.99999649	0.00000000	1.58095500
62.19999648	0.00000000	2.44217500
62.39999647	0.00000000	1.58095500
62.59999645	0.00000000	-0.46136810
62.79999644	0.00000000	-3.05118100
62.99999643	0.00000000	-5.55487200
63.19999642	0.00000000	-7.68946800
63.39999641	0.00000000	-8.55684000
63.59999639	0.00000000	-8.65526600
63.79999638	0.00000000	-8.60605200
63.99999637	0.00000000	-8.14468500
64.19999636	0.00000000	-6.87746000
64.39999635	0.00000000	-5.19192900
64.59999634	0.00000000	-3.46333600
64.79999632	0.00000000	-1.77780500
64.99999631	0.00000000	-0.46136810
65.19999630	0.00000000	0.41215550
65.39999629	0.00000000	1.21801200
65.59999628	0.00000000	1.11958700
65.79999626	0.00000000	-0.55979330
65.99999625	0.00000000	-3.51254900
66.19999624	0.00000000	-6.92667200
66.39999623	0.00000000	-10.29158000
66.59999622	0.00000000	-12.83834000
66.79999620	0.00000000	-13.65650000
66.99999619	0.00000000	-12.78912000
67.19999618	0.00000000	-9.78100300
67.39999617	0.00000000	-5.14271600
67.59999616	0.00000000	-0.09842519
67.79999615	0.00000000	4.12770700
67.99999613	0.00000000	6.26845500
68.19999612	0.00000000	6.26845500
68.39999611	0.00000000	4.07849400
68.59999610	0.00000000	-0.55979330
68.79999609	0.00000000	-6.46530500
68.99999607	0.00000000	-11.97096000
69.19999606	0.00000000	-16.19710000
69.39999605	0.00000000	-17.83341000
69.59999604	0.00000000	-16.19710000
69.79999603	0.00000000	-11.97096000
69.99999601	0.00000000	-6.46530500
70.19999600	0.00000000	-0.51058070
70.39999599	0.00000000	4.53371000
70.59999598	0.00000000	7.54183000
70.79999597	0.00000000	7.94783400
70.99999596	0.00000000	5.80708600
71.19999594	0.00000000	1.22416300
71.39999593	0.00000000	-4.27534400
71.59999592	0.00000000	-8.96899500
71.79999591	0.00000000	-12.83218000
71.99999590	0.00000000	-14.87451000
72.19999588	0.00000000	-14.46850000
72.39999587	0.00000000	-11.50960000
72.59999586	0.00000000	-6.92667200
72.79999585	0.00000000	-2.23917300
72.99999584	0.00000000	1.58095500
73.19999582	0.00000000	4.17691900
73.39999581	0.00000000	4.99507900
73.59999580	0.00000000	4.12770700
73.79999579	0.00000000	1.11958700
73.99999578	0.00000000	-3.46333600
74.19999577	0.00000000	-8.09547100
74.39999575	0.00000000	-11.50960000
74.59999574	0.00000000	-13.24434000
74.79999573	0.00000000	-13.19513000
74.99999572	0.00000000	-11.05438000
75.19999571	0.00000000	-6.87746000
75.39999569	0.00000000	-2.23917300
75.59999568	0.00000000	1.58095500
75.79999567	0.00000000	4.12770700
75.99999566	0.00000000	4.53371000
76.19999565	0.00000000	2.85433100
76.39999563	0.00000000	-0.55979330
76.59999562	0.00000000	-5.19192900
76.79999561	0.00000000	-9.78100300
76.99999560	0.00000000	-12.78912000
77.19999559	0.00000000	-13.60728000
77.39999558	0.00000000	-12.32775000
77.59999556	0.00000000	-8.50762700
77.79999555	0.00000000	-3.46333600
77.99999554	0.00000000	1.63016700
78.19999553	0.00000000	5.80708600
78.39999552	0.00000000	7.49261800
78.59999550	0.00000000	6.21924200
78.79999549	0.00000000	2.39911400
78.99999548	0.00000000	-3.51254900
79.19999547	0.00000000	-9.83021600
79.39999546	0.00000000	-14.92372000
79.59999544	0.00000000	-17.88263000
79.79999543	0.00000000	-17.83341000
79.99999542	0.00000000	-14.46850000
80.19999541	0.00000000	-8.55684000
80.39999540	0.00000000	-1.77780500
80.59999539	0.00000000	4.58907500
80.79999537	0.00000000	9.22121000
80.99999536	0.00000000	10.85753000
81.19999535	0.00000000	8.76599300
81.39999534	0.00000000	3.31569900
81.59999533	0.00000000	-3.46333600
81.79999531	0.00000000	-10.29158000
81.99999530	0.00000000	-16.20325000
82.19999529	0.00000000	-19.56816000
82.39999528	0.00000000	-19.61737000
82.59999527	0.00000000	-16.60925000
82.79999525	0.00000000	-11.10359000
82.99999524	0.00000000	-3.92470400
83.19999523	0.00000000	2.85433100
83.39999522	0.00000000	7.99704600
83.59999521	0.00000000	10.95595000
83.79999520	0.00000000	10.90674000
83.99999518	0.00000000	7.54183000
84.19999517	0.00000000	1.63016700
84.39999516	0.00000000	-5.14271600
84.59999515	0.00000000	-11.55881000
84.79999514	0.00000000	-16.60925000
84.99999512	0.00000000	-19.20522000
85.19999511	0.00000000	-18.75000000
85.39999510	0.00000000	-15.79109000
85.59999509	0.00000000	-10.24237000
85.79999508	0.00000000	-3.51254900
85.99999506	0.00000000	2.90354300
86.19999505	0.00000000	7.99704600
86.39999504	0.00000000	10.95595000
86.59999503	0.00000000	10.90674000
86.79999502	0.00000000	7.54183000
86.99999501	0.00000000	1.63016700
87.19999499	0.00000000	-5.14271600
87.39999498	0.00000000	-11.50960000
87.59999497	0.00000000	-16.19710000
87.79999496	0.00000000	-18.33784000
87.99999495	0.00000000	-17.93184000
88.19999493	0.00000000	-14.92372000
88.39999492	0.00000000	-9.87942800
88.59999491	0.00000000	-3.92470400
88.79999490	0.00000000	1.63016700
88.99999489	0.00000000	6.31766700
89.19999487	0.00000000	9.22736200
89.39999486	0.00000000	9.17814900
89.59999485	0.00000000	5.86245000
89.79999484	0.00000000	0.41215550
89.99999483	0.00000000	-5.14271600
90.19999482	0.00000000	-10.29158000
90.39999480	0.00000000	-14.46850000
90.59999479	0.00000000	-16.14788000
90.79999478	0.00000000	-14.92372000
90.99999477	0.00000000	-11.55881000
91.19999476	0.00000000	-6.92667200
91.39999474	0.00000000	-2.23917300
91.59999473	0.00000000	1.58095500
91.79999472	0.00000000	4.12770700
91.99999471	0.00000000	4.58292300
92.19999470	0.00000000	3.36491100
92.39999468	0.00000000	1.22416300
92.59999467	0.00000000	-1.77780500
92.79999466	0.00000000	-5.14271600
92.99999465	0.00000000	-8.09547100
93.19999464	0.00000000	-9.78100300
93.39999463	0.00000000	-9.83021600
93.59999461	0.00000000	-8.60605200
93.79999460	0.00000000	-6.92667200
93.99999459	0.00000000	-5.19192900
94.19999458	0.00000000	-3.46333600
94.39999457	0.00000000	-1.77780500
94.59999455	0.00000000	-0.55979330
94.79999454	0.00000000	-0.51058070
94.99999453	0.00000000	-1.31643700
95.19999452	0.00000000	-2.14074800
95.39999451	0.00000000	-3.05118100
95.59999449	0.00000000	-3.87549200
95.79999448	0.00000000	-4.73056000
95.99999447	0.00000000	-5.14271600
96.19999446	0.00000000	-5.19192900
96.39999445	0.00000000	-5.19192900
96.59999444	0.00000000	-5.19192900
96.79999442	0.00000000	-5.19192900
96.99999441	0.00000000	-5.14271600
97.19999440	0.00000000	-4.73056000
97.39999439	0.00000000	-3.92470400
97.59999438	0.00000000	-3.46333600
97.79999436	0.00000000	-3.00196800
97.99999435	0.00000000	-2.18996000
98.19999434	0.00000000	-1.82701800
98.39999433	0.00000000	-2.18996000
98.59999432	0.00000000	-3.05118100
98.79999430	0.00000000	-3.87549200
98.99999429	0.00000000	-4.77977300
99.19999428	0.00000000	-5.60408400
99.39999427	0.00000000	-6.46530500
99.59999426	0.00000000	-6.82824800
99.79999425	0.00000000	-6.46530500
99.99999423	0.00000000	-5.60408400
100.19999422	0.00000000	-4.73056000
100.39999421	0.00000000	-3.46333600
100.59999420	0.00000000	-2.23917300
100.79999419	0.00000000	-1.77780500
100.99999417	0.00000000	-1.77780500
101.19999416	0.00000000	-2.18996000
101.39999415	0.00000000	-3.05118100
101.59999414	0.00000000	-3.87549200
101.79999413	0.00000000	-4.77977300
101.99999411	0.00000000	-5.60408400
102.19999410	0.00000000	-6.46530500
102.39999409	0.00000000	-6.82824800
102.59999408	0.00000000	-6.41609200
102.79999407	0.00000000	-5.14271600
102.99999406	0.00000000	-3.51254900
103.19999404	0.00000000	-2.23917300
103.39999403	0.00000000	-1.77780500
103.59999402	0.00000000	-1.77780500
103.79999401	0.00000000	-2.18996000
103.99999400	0.00000000	-3.05118100
104.19999398	0.00000000	-3.87549200
104.39999397	0.00000000	-4.73056000
104.59999396	0.00000000	-5.19192900
104.79999395	0.00000000	-5.60408400
104.99999394	0.00000000	-6.00393600
105.19999392	0.00000000	-5.55487200
105.39999391	0.00000000	-4.77977300
105.59999390	0.00000000	-3.87549200
105.79999389	0.00000000	-3.05118100
105.99999388	0.00000000	-2.18996000
106.19999387	0.00000000	-1.82701800
106.39999385	0.00000000	-2.18996000
106.59999384	0.00000000	-3.05118100
106.79999383	0.00000000	-3.92470400
106.99999382	0.00000000	-5.19192900
107.19999381	0.00000000	-6.41609200
107.39999379	0.00000000	-6.87746000
107.59999378	0.00000000	-6.87746000
107.79999377	0.00000000	-6.41609200
107.99999376	0.00000000	-5.14271600
108.19999375	0.00000000	-3.51254900
108.39999374	0.00000000	-2.23917300
108.59999372	0.00000000	-1.77780500
108.79999371	0.00000000	-1.72859200
108.99999370	0.00000000	-1.77780500
