Time	Channel A	Channel B
(us)	(V)	(mV)

-4.49999956	0.00000000	6.92667200
-4.29999957	0.00000000	6.92667200
-4.09999958	0.00000000	6.87746000
-3.89999959	0.00000000	6.51451700
-3.69999960	0.00000000	6.11466500
-3.49999962	0.00000000	6.46530500
-3.29999963	0.00000000	6.46530500
-3.09999964	0.00000000	6.11466500
-2.89999965	0.00000000	6.51451700
-2.69999966	0.00000000	6.87746000
-2.49999968	0.00000000	6.92667200
-2.29999969	0.00000000	6.92667200
-2.09999970	0.00000000	6.92667200
-1.89999971	0.00000000	6.92667200
-1.69999972	0.00000000	6.92667200
-1.49999973	0.00000000	6.87746000
-1.29999975	0.00000000	6.46530500
-1.09999976	0.00000000	5.65329700
-0.89999977	0.00000000	5.29035400
-0.69999978	0.00000000	5.65329700
-0.49999979	0.00000000	6.46530500
-0.29999981	0.35125490	6.87746000
-0.09999982	0.70250980	6.87746000
0.10000017	1.05376500	6.46530500
0.30000016	1.05376500	5.65329700
0.50000015	0.87844490	5.24114100
0.70000013	0.17531990	5.24114100
0.90000012	-0.52657480	5.65329700
1.10000011	-1.58095500	6.46530500
1.30000010	-2.45940000	6.87746000
1.50000009	-2.81127000	6.92667200
1.70000008	-2.45940000	6.92667200
1.90000006	-1.05376500	6.92667200
2.10000005	0.70250980	6.92667200
2.30000004	2.81127000	6.87746000
2.50000003	4.56816000	6.46530500
2.70000002	5.44660400	5.65329700
2.90000000	4.74409400	5.24114100
3.09999999	2.63533500	5.19192900
3.29999998	-0.35125490	5.24114100
3.49999997	-3.86565000	5.65329700
3.69999996	-6.67691900	6.46530500
3.89999994	-8.08255400	6.87746000
4.09999993	-7.37942900	6.92667200
4.29999992	-4.74409400	6.92667200
4.49999991	-0.70250980	6.92667200
4.69999990	3.86565000	6.87746000
4.89999989	7.55536400	6.46530500
5.09999987	9.31225400	5.65329700
5.29999986	8.96099900	5.24114100
5.49999985	6.14972900	5.19192900
5.69999984	1.75689000	5.19192900
5.89999983	-2.98659000	5.24114100
6.09999981	-7.02817400	5.65329700
6.29999980	-9.31225400	6.46530500
6.49999979	-9.13693400	6.87746000
6.69999978	-6.85223900	6.92667200
6.89999977	-2.81127000	6.92667200
7.09999975	1.58095500	6.92667200
7.29999974	5.27128500	6.92667200
7.49999973	7.37942900	6.87746000
7.69999972	7.55536400	6.46530500
7.89999971	5.79847400	5.65329700
8.09999970	2.81127000	5.24114100
8.29999968	-0.35125490	5.24114100
8.49999967	-3.16252500	5.60408400
8.69999966	-4.91941500	6.05314900
8.89999965	-5.09534900	6.06545300
9.09999964	-4.04096900	6.51451700
9.29999962	-2.28408000	6.82824800
9.49999961	-0.35125490	6.51451700
9.69999960	1.40563500	6.11466500
9.89999959	2.28408000	6.46530500
10.09999958	2.45940000	6.41609200
10.29999956	1.93282500	5.65329700
10.49999955	1.22970000	5.24114100
10.69999954	0.17531990	5.24114100
10.89999953	-0.52657480	5.60408400
11.09999952	-0.87844490	6.05314900
11.29999951	-1.05376500	6.01624000
11.49999949	-0.87844490	6.10236200
11.69999948	-0.52657480	6.06545300
11.89999947	-0.17531990	6.51451700
12.09999946	0.00000000	6.82824800
12.29999945	0.00000000	6.51451700
12.49999943	0.00000000	6.06545300
12.69999942	-0.17531990	6.05314900
12.89999941	-0.17531990	5.60408400
13.09999940	-0.17531990	5.24114100
13.29999939	-0.17531990	5.19192900
13.49999937	-0.17531990	5.24114100
13.69999936	0.00000000	5.60408400
13.89999935	0.00000000	6.00393600
14.09999934	0.00000000	5.65329700
14.29999933	0.00000000	5.70251000
14.49999932	0.00000000	6.41609200
14.69999930	0.00000000	6.46530500
14.89999929	0.00000000	6.06545300
15.09999928	0.00000000	6.05314900
15.29999927	0.00000000	5.65329700
15.49999926	0.00000000	5.65329700
15.69999924	0.00000000	6.00393600
15.89999923	0.00000000	5.60408400
16.09999922	0.00000000	5.29035400
16.29999921	0.00000000	5.65329700
16.49999920	0.00000000	6.41609200
16.69999919	0.00000000	6.41609200
16.89999917	0.00000000	5.65329700
17.09999916	0.00000000	5.24114100
17.29999915	0.00000000	5.19192900
17.49999914	0.00000000	5.24114100
17.69999913	0.00000000	5.65329700
17.89999911	0.00000000	6.46530500
18.09999910	0.00000000	6.82824800
18.29999909	0.00000000	6.46530500
18.49999908	0.00000000	5.70251000
18.69999907	0.00000000	5.70251000
18.89999905	0.00000000	6.46530500
19.09999904	0.00000000	6.82824800
19.29999903	0.00000000	6.46530500
19.49999902	0.00000000	5.65329700
19.69999901	0.00000000	5.24114100
19.89999900	0.00000000	5.24114100
20.09999898	0.00000000	5.65329700
20.29999897	0.00000000	6.41609200
20.49999896	0.00000000	6.46530500
20.69999895	0.00000000	6.06545300
20.89999894	0.00000000	6.10236200
21.09999892	0.00000000	6.01624000
21.29999891	0.00000000	6.10236200
21.49999890	0.00000000	6.01624000
21.69999889	0.00000000	6.05314900
21.89999888	0.00000000	5.65329700
22.09999886	0.00000000	5.70251000
22.29999885	0.00000000	6.46530500
22.49999884	0.00000000	6.82824800
22.69999883	0.00000000	6.46530500
22.89999882	0.00000000	5.65329700
23.09999881	0.00000000	5.24114100
23.29999879	0.00000000	5.19192900
23.49999878	0.00000000	5.19192900
23.69999877	0.00000000	5.19192900
23.89999876	0.00000000	5.19192900
24.09999875	0.00000000	5.24114100
24.29999873	0.00000000	5.65329700
24.49999872	0.00000000	6.51451700
24.69999871	0.00000000	7.38804100
24.89999870	0.00000000	8.65526600
25.09999869	0.00000000	9.83021600
25.29999867	0.00000000	9.83021600
25.49999866	0.00000000	8.55684000
25.69999865	0.00000000	6.46530500
25.89999864	0.00000000	3.87549200
26.09999863	0.00000000	1.32258800
26.29999862	0.00000000	-1.22416300
26.49999860	0.00000000	-2.85433100
26.69999859	0.00000000	-2.80511800
26.89999858	0.00000000	-0.61515740
27.09999857	0.00000000	4.07234200
27.29999856	0.00000000	10.39001000
27.49999854	0.00000000	16.75689000
27.69999853	0.00000000	21.75197000
27.89999852	0.00000000	23.78814000
28.09999851	0.00000000	21.19833000
28.29999850	0.00000000	14.41929000
28.49999848	0.00000000	4.63213500
28.69999847	0.00000000	-6.36687900
28.89999846	0.00000000	-16.05561000
29.09999845	0.00000000	-21.86270000
29.29999844	0.00000000	-21.40133000
29.49999843	0.00000000	-14.12401000
29.69999841	0.00000000	-1.37795300
29.89999840	0.00000000	15.12057000
30.09999839	0.00000000	31.07775000
30.29999838	0.00000000	42.08292000
30.49999837	0.00000000	45.44783000
30.69999835	0.00000000	40.25590000
30.89999834	0.00000000	26.64862000
31.09999833	0.00000000	6.72982200
31.29999832	0.00000000	-14.77608000
31.49999831	0.00000000	-32.96629000
31.69999829	0.00000000	-43.06102000
31.89999828	0.00000000	-42.60580000
32.09999827	0.00000000	-31.09006000
32.29999826	0.00000000	-10.34695000
32.49999825	0.00000000	15.02830000
32.69999824	0.00000000	39.13017000
32.89999822	0.00000000	56.45915000
33.09999821	0.00000000	62.77681000
33.29999820	0.00000000	56.36073000
33.49999819	0.00000000	38.16437000
33.69999818	0.00000000	11.92175000
33.89999816	0.00000000	-15.95718000
34.09999815	0.00000000	-39.24089000
34.29999814	0.00000000	-52.33759000
34.49999813	0.00000000	-52.33759000
34.69999812	0.00000000	-39.24089000
34.89999810	0.00000000	-15.95718000
35.09999809	0.00000000	11.97096000
35.29999808	0.00000000	38.61958000
35.49999807	0.00000000	57.62795000
35.69999806	0.00000000	64.45620000
35.89999805	0.00000000	58.13853000
36.09999803	0.00000000	40.35433000
36.29999802	0.00000000	15.02830000
36.49999801	0.00000000	-11.62032000
36.69999800	0.00000000	-33.18159000
36.89999799	0.00000000	-45.09719000
37.09999797	0.00000000	-44.69734000
37.29999796	0.00000000	-32.91707000
37.49999795	0.00000000	-12.64149000
37.69999794	0.00000000	11.00517000
37.89999793	0.00000000	32.10507000
38.09999791	0.00000000	45.65698000
38.29999790	0.00000000	48.30832000
38.49999789	0.00000000	40.81570000
38.69999788	0.00000000	26.03346000
38.89999787	0.00000000	7.48646600
39.09999786	0.00000000	-9.83636800
39.29999784	0.00000000	-21.71506000
39.49999783	0.00000000	-25.99040000
39.69999782	0.00000000	-21.81348000
39.89999781	0.00000000	-10.95595000
40.09999780	0.00000000	2.90354300
40.29999778	0.00000000	15.59424000
40.49999777	0.00000000	24.10187000
40.69999776	0.00000000	27.10384000
40.89999775	0.00000000	24.20029000
41.09999774	0.00000000	16.70768000
41.29999772	0.00000000	7.48646600
41.49999771	0.00000000	-0.51673230
41.69999770	0.00000000	-5.25344500
41.89999769	0.00000000	-6.17002900
42.09999768	0.00000000	-4.07849400
42.29999767	0.00000000	0.51058070
42.49999765	0.00000000	5.91166300
42.69999764	0.00000000	9.73179100
42.89999763	0.00000000	11.46038000
43.09999762	0.00000000	11.10359000
43.29999761	0.00000000	9.01820900
43.49999759	0.00000000	6.56373000
43.69999758	0.00000000	4.47834600
43.89999757	0.00000000	4.02313000
44.09999756	0.00000000	4.77977300
44.29999755	0.00000000	5.65329700
44.49999753	0.00000000	6.87746000
44.69999752	0.00000000	7.64025500
44.89999751	0.00000000	6.77903500
45.09999750	0.00000000	4.73056000
45.29999749	0.00000000	2.23917300
45.49999748	0.00000000	0.60900590
45.69999746	0.00000000	0.60900590
45.89999745	0.00000000	2.28838600
46.09999744	0.00000000	5.24114100
46.29999743	0.00000000	8.60605200
46.49999742	0.00000000	11.55881000
46.69999740	0.00000000	13.24434000
46.89999739	0.00000000	13.24434000
47.09999738	0.00000000	11.50960000
47.29999737	0.00000000	8.14468500
47.49999736	0.00000000	3.92470400
47.69999734	0.00000000	0.14763780
47.89999733	0.00000000	-2.39911400
48.09999732	0.00000000	-2.80511800
48.29999731	0.00000000	-1.17495100
48.49999730	0.00000000	1.82701800
48.69999729	0.00000000	5.60408400
48.89999727	0.00000000	9.41806000
49.09999726	0.00000000	11.92175000
49.29999725	0.00000000	12.83218000
49.49999724	0.00000000	12.02018000
49.69999723	0.00000000	10.34080000
49.89999721	0.00000000	8.14468500
50.09999720	0.00000000	5.24114100
50.29999719	0.00000000	2.69439000
50.49999718	0.00000000	1.36565000
50.69999717	0.00000000	0.46136810
50.89999715	0.00000000	0.09842519
51.09999714	0.00000000	0.55979330
51.29999713	0.00000000	2.23917300
51.49999712	0.00000000	4.73056000
51.69999711	0.00000000	6.87746000
51.89999710	0.00000000	8.65526600
52.09999708	0.00000000	10.34080000
52.29999707	0.00000000	11.55881000
52.49999706	0.00000000	11.55881000
52.69999705	0.00000000	10.29158000
52.89999704	0.00000000	8.14468500
53.09999702	0.00000000	5.19192900
53.29999701	0.00000000	2.23917300
53.49999700	0.00000000	0.09842519
53.69999699	0.00000000	-1.16879900
53.89999698	0.00000000	-1.11958700
54.09999696	0.00000000	0.55979330
54.29999695	0.00000000	3.51254900
54.49999694	0.00000000	6.87746000
54.69999693	0.00000000	9.83021600
54.89999692	0.00000000	11.50960000
55.09999691	0.00000000	11.55881000
55.29999689	0.00000000	10.29158000
55.49999688	0.00000000	8.14468500
55.69999687	0.00000000	5.19192900
55.89999686	0.00000000	2.23917300
56.09999685	0.00000000	0.19685040
56.29999683	0.00000000	-0.25221450
56.49999682	0.00000000	1.42101400
56.69999681	0.00000000	3.92470400
56.89999680	0.00000000	6.92667200
57.09999679	0.00000000	9.83021600
57.29999677	0.00000000	11.50960000
57.49999676	0.00000000	11.50960000
57.69999675	0.00000000	9.83021600
57.89999674	0.00000000	6.87746000
58.09999673	0.00000000	3.51254900
58.29999672	0.00000000	0.55979330
58.49999670	0.00000000	-1.11958700
58.69999669	0.00000000	-1.11958700
58.89999668	0.00000000	0.60900590
59.09999667	0.00000000	3.97391700
59.29999666	0.00000000	8.14468500
59.49999664	0.00000000	11.50960000
59.69999663	0.00000000	13.24434000
59.89999662	0.00000000	13.24434000
60.09999661	0.00000000	11.50960000
60.29999660	0.00000000	8.14468500
60.49999658	0.00000000	3.97391700
60.69999657	0.00000000	0.55979330
60.89999656	0.00000000	-1.58095500
61.09999655	0.00000000	-2.34375000
61.29999654	0.00000000	-0.66437010
61.49999653	0.00000000	3.05118100
61.69999651	0.00000000	6.82824800
61.89999650	0.00000000	9.87942800
62.09999649	0.00000000	11.97096000
62.29999648	0.00000000	12.83218000
62.49999647	0.00000000	11.97096000
62.69999645	0.00000000	9.87942800
62.89999644	0.00000000	6.92667200
63.09999643	0.00000000	3.97391700
63.29999642	0.00000000	1.82701800
63.49999641	0.00000000	0.55979330
63.69999639	0.00000000	0.55979330
63.89999638	0.00000000	1.72859200
64.09999637	0.00000000	3.00196800
64.29999636	0.00000000	3.92470400
64.49999635	0.00000000	5.24114100
64.69999634	0.00000000	6.92667200
64.89999632	0.00000000	8.60605200
65.09999631	0.00000000	9.87942800
65.29999630	0.00000000	10.34080000
65.49999629	0.00000000	10.34080000
65.69999628	0.00000000	9.83021600
65.89999626	0.00000000	8.09547100
66.09999625	0.00000000	5.14271600
66.29999624	0.00000000	1.77780500
66.49999623	0.00000000	-1.17495100
66.69999622	0.00000000	-2.85433100
66.89999620	0.00000000	-2.85433100
67.09999619	0.00000000	-1.12573800
67.29999618	0.00000000	2.23917300
67.49999617	0.00000000	6.51451700
67.69999616	0.00000000	10.75295000
67.89999615	0.00000000	14.56693000
68.09999613	0.00000000	16.60925000
68.29999612	0.00000000	16.20325000
68.49999611	0.00000000	13.19513000
68.69999610	0.00000000	8.14468500
68.89999609	0.00000000	2.23917300
69.09999607	0.00000000	-2.85433100
69.29999606	0.00000000	-6.26845500
69.49999605	0.00000000	-7.49261800
69.69999604	0.00000000	-5.75787400
69.89999603	0.00000000	-1.17495100
70.09999601	0.00000000	4.73671200
70.29999600	0.00000000	10.29158000
70.49999599	0.00000000	14.97293000
70.69999598	0.00000000	17.88263000
70.89999597	0.00000000	17.88263000
71.09999596	0.00000000	14.97293000
71.29999594	0.00000000	10.29158000
71.49999593	0.00000000	4.78592500
71.69999592	0.00000000	-0.71358260
71.89999591	0.00000000	-4.48449800
72.09999590	0.00000000	-5.80708600
72.29999588	0.00000000	-4.53371000
72.49999587	0.00000000	-1.16879900
72.69999586	0.00000000	3.46333600
72.89999585	0.00000000	8.14468500
73.09999584	0.00000000	12.02018000
73.29999582	0.00000000	14.92372000
73.49999581	0.00000000	15.74188000
73.69999580	0.00000000	13.65650000
73.89999579	0.00000000	9.87942800
74.09999578	0.00000000	5.19192900
74.29999577	0.00000000	0.55979330
74.49999575	0.00000000	-2.80511800
74.69999574	0.00000000	-4.12770700
74.89999573	0.00000000	-3.26648600
75.09999572	0.00000000	-0.71358260
75.29999571	0.00000000	3.51254900
75.49999569	0.00000000	8.09547100
75.69999568	0.00000000	11.55881000
75.89999567	0.00000000	13.65650000
76.09999566	0.00000000	14.05635000
76.29999565	0.00000000	11.92175000
76.49999563	0.00000000	8.14468500
76.69999562	0.00000000	3.46333600
76.89999561	0.00000000	-1.11958700
77.09999560	0.00000000	-4.07849400
77.29999559	0.00000000	-4.48449800
77.49999558	0.00000000	-2.39911400
77.69999556	0.00000000	1.87623000
77.89999555	0.00000000	7.33882900
78.09999554	0.00000000	12.83834000
78.29999553	0.00000000	16.56004000
78.49999552	0.00000000	17.47047000
78.69999550	0.00000000	15.33587000
78.89999549	0.00000000	11.10359000
79.09999548	0.00000000	5.14271600
79.29999547	0.00000000	-1.12573800
79.49999546	0.00000000	-5.80708600
79.69999544	0.00000000	-7.89862200
79.89999543	0.00000000	-7.03125000
80.09999542	0.00000000	-2.80511800
80.29999541	0.00000000	3.51254900
80.49999540	0.00000000	10.29158000
80.69999539	0.00000000	16.20325000
80.89999537	0.00000000	19.61737000
81.09999536	0.00000000	20.02337000
81.29999535	0.00000000	17.47047000
81.49999534	0.00000000	11.97096000
81.69999533	0.00000000	5.19192900
81.89999531	0.00000000	-1.58095500
82.09999530	0.00000000	-7.08046200
82.29999529	0.00000000	-9.63336600
82.49999528	0.00000000	-9.22736200
82.69999527	0.00000000	-5.81323800
82.89999525	0.00000000	0.09842519
83.09999524	0.00000000	6.87746000
83.29999523	0.00000000	13.24434000
83.49999522	0.00000000	17.93184000
83.69999521	0.00000000	20.07259000
83.89999520	0.00000000	19.61737000
84.09999518	0.00000000	16.20325000
84.29999517	0.00000000	10.29158000
84.49999516	0.00000000	3.56176100
84.69999515	0.00000000	-2.44832700
84.89999514	0.00000000	-6.68061000
85.09999512	0.00000000	-8.81520600
85.29999511	0.00000000	-7.94783400
85.49999510	0.00000000	-4.58292300
85.69999509	0.00000000	0.55979330
85.89999508	0.00000000	6.92667200
86.09999506	0.00000000	13.24434000
86.29999505	0.00000000	17.93184000
86.49999504	0.00000000	20.07259000
86.69999503	0.00000000	19.61737000
86.89999502	0.00000000	16.20325000
87.09999501	0.00000000	10.34080000
87.29999499	0.00000000	3.97391700
87.49999498	0.00000000	-1.63016700
87.69999497	0.00000000	-6.26845500
87.89999496	0.00000000	-8.76599300
88.09999495	0.00000000	-7.94783400
88.29999493	0.00000000	-4.58292300
88.49999492	0.00000000	0.55979330
88.69999491	0.00000000	6.87746000
88.89999490	0.00000000	12.78912000
89.09999489	0.00000000	16.65846000
89.29999487	0.00000000	18.33784000
89.49999486	0.00000000	17.47047000
89.69999485	0.00000000	13.70571000
89.89999484	0.00000000	8.65526600
90.09999483	0.00000000	3.51254900
90.29999482	0.00000000	-1.16879900
90.49999480	0.00000000	-4.58292300
90.69999479	0.00000000	-6.21924200
90.89999478	0.00000000	-5.35187000
91.09999477	0.00000000	-1.58095500
91.29999476	0.00000000	3.41412400
91.49999474	0.00000000	8.09547100
91.69999473	0.00000000	11.50960000
91.89999472	0.00000000	13.29355000
92.09999471	0.00000000	13.70571000
92.29999470	0.00000000	12.83834000
92.49999468	0.00000000	10.29158000
92.69999467	0.00000000	6.92667200
92.89999466	0.00000000	3.51254900
93.09999465	0.00000000	0.60900590
93.29999464	0.00000000	-0.71358260
93.49999463	0.00000000	-0.36294290
93.69999461	0.00000000	0.51058070
93.89999460	0.00000000	2.23917300
94.09999459	0.00000000	4.73056000
94.29999458	0.00000000	6.82824800
94.49999457	0.00000000	8.14468500
94.69999455	0.00000000	8.60605200
94.89999454	0.00000000	8.60605200
95.09999453	0.00000000	8.19389700
95.29999452	0.00000000	7.33882900
95.49999451	0.00000000	6.51451700
95.69999449	0.00000000	5.60408400
95.89999448	0.00000000	4.77977300
96.09999447	0.00000000	3.92470400
96.29999446	0.00000000	3.51254900
96.49999445	0.00000000	3.46333600
96.69999444	0.00000000	3.46333600
96.89999442	0.00000000	3.51254900
97.09999441	0.00000000	3.92470400
97.29999440	0.00000000	4.77977300
97.49999439	0.00000000	5.60408400
97.69999438	0.00000000	6.46530500
97.89999436	0.00000000	6.87746000
98.09999435	0.00000000	6.92667200
98.29999434	0.00000000	6.92667200
98.49999433	0.00000000	6.87746000
98.69999432	0.00000000	6.46530500
98.89999430	0.00000000	5.60408400
99.09999429	0.00000000	4.77977300
99.29999428	0.00000000	3.92470400
99.49999427	0.00000000	3.51254900
99.69999426	0.00000000	3.46333600
99.89999425	0.00000000	3.51254900
100.09999423	0.00000000	3.92470400
100.29999422	0.00000000	4.77977300
100.49999421	0.00000000	5.65329700
100.69999420	0.00000000	6.92667200
100.89999419	0.00000000	8.09547100
101.09999417	0.00000000	8.14468500
101.29999416	0.00000000	7.33882900
101.49999415	0.00000000	6.46530500
101.69999414	0.00000000	5.19192900
101.89999413	0.00000000	3.97391700
102.09999411	0.00000000	3.51254900
102.29999410	0.00000000	3.46333600
102.49999409	0.00000000	3.51254900
102.69999408	0.00000000	3.92470400
102.89999407	0.00000000	4.77977300
103.09999406	0.00000000	5.60408400
103.29999404	0.00000000	6.46530500
103.49999403	0.00000000	6.87746000
103.69999402	0.00000000	6.92667200
103.89999401	0.00000000	6.87746000
104.09999400	0.00000000	6.41609200
104.29999398	0.00000000	5.19192900
104.49999397	0.00000000	3.97391700
104.69999396	0.00000000	3.51254900
104.89999395	0.00000000	3.46333600
105.09999394	0.00000000	3.51254900
105.29999392	0.00000000	3.92470400
105.49999391	0.00000000	4.77977300
105.69999390	0.00000000	5.65329700
105.89999389	0.00000000	6.87746000
106.09999388	0.00000000	7.68946800
106.29999387	0.00000000	7.33882900
106.49999385	0.00000000	6.92667200
106.69999384	0.00000000	6.41609200
106.89999383	0.00000000	5.19192900
107.09999382	0.00000000	3.97391700
107.29999381	0.00000000	3.46333600
107.49999379	0.00000000	3.05118100
107.69999378	0.00000000	2.70054100
107.89999377	0.00000000	3.51254900
108.09999376	0.00000000	4.73056000
108.29999375	0.00000000	5.65329700
108.49999374	0.00000000	6.92667200
108.69999372	0.00000000	8.14468500
108.89999371	0.00000000	8.55684000
109.09999370	0.00000000	8.14468500
109.29999369	0.00000000	6.87746000
109.49999368	0.00000000	5.19192900
109.69999366	0.00000000	3.51254900
109.89999365	0.00000000	2.23917300
110.09999364	0.00000000	1.77780500
110.29999363	0.00000000	1.77780500
110.49999362	0.00000000	2.23917300
110.69999360	0.00000000	3.56176100
110.89999359	0.00000000	5.65329700
