Time	Channel A	Channel B
(us)	(V)	(mV)

-4.59999956	0.00000000	-10.34080000
-4.39999957	0.00000000	-9.92864100
-4.19999958	0.00000000	-9.11663300
-3.99999959	0.00000000	-8.75369100
-3.79999960	0.00000000	-9.11663300
-3.59999962	0.00000000	-9.92864100
-3.39999963	0.00000000	-10.34080000
-3.19999964	0.00000000	-10.39001000
-2.99999965	0.00000000	-10.39001000
-2.79999966	0.00000000	-10.39001000
-2.59999968	0.00000000	-10.39001000
-2.39999969	0.00000000	-10.39001000
-2.19999970	0.00000000	-10.39001000
-1.99999971	0.00000000	-10.39001000
-1.79999972	0.00000000	-10.39001000
-1.59999973	0.00000000	-10.39001000
-1.39999975	0.00000000	-10.39001000
-1.19999976	0.00000000	-10.39001000
-0.99999977	0.00000000	-10.39001000
-0.79999978	0.00000000	-10.39001000
-0.59999979	0.00000000	-10.39001000
-0.39999981	0.17531990	-10.39001000
-0.19999982	0.52657480	-10.39001000
0.00000017	0.87844490	-10.39001000
0.20000016	1.05376500	-10.39001000
0.40000015	0.87844490	-10.39001000
0.60000013	0.52657480	-10.39001000
0.80000012	-0.35125490	-10.39001000
1.00000011	-1.22970000	-10.39001000
1.20000010	-2.28408000	-10.39001000
1.40000009	-2.81127000	-10.39001000
1.60000008	-2.63533500	-10.34080000
1.80000006	-1.58095500	-9.92864100
2.00000005	0.00000000	-9.16584600
2.20000004	2.28408000	-9.16584600
2.40000003	4.21690500	-9.92864100
2.60000002	5.27128500	-10.34080000
2.80000000	5.09534900	-10.39001000
2.99999999	3.51377900	-10.39001000
3.19999998	0.52657480	-10.39001000
3.39999997	-2.81127000	-10.34080000
3.59999996	-5.97379400	-9.92864100
3.79999994	-7.73129900	-9.11663300
3.99999993	-7.73129900	-8.70447700
4.19999992	-5.62254000	-8.65526600
4.39999991	-1.93282500	-8.65526600
4.59999990	2.45940000	-8.65526600
4.79999989	6.50098400	-8.70447700
4.99999987	8.96099900	-9.11663300
5.19999986	9.31225400	-9.92864100
5.39999985	7.20410900	-10.34080000
5.59999984	3.16252500	-10.39001000
5.79999983	-1.40563500	-10.39001000
5.99999981	-5.97379400	-10.39001000
6.19999980	-8.78567900	-10.39001000
6.39999979	-9.31225400	-10.39001000
6.59999978	-7.73129900	-10.39001000
6.79999977	-4.21690500	-10.39001000
6.99999975	0.17531990	-10.39001000
7.19999974	4.21690500	-10.39001000
7.39999973	6.85223900	-10.39001000
7.59999972	7.73129900	-10.39001000
7.79999971	6.50098400	-10.39001000
7.99999970	3.86565000	-10.39001000
8.19999968	0.52657480	-10.39001000
8.39999967	-2.45940000	-10.34080000
8.59999966	-4.56816000	-9.97785300
8.79999965	-5.09534900	-9.52879000
8.99999964	-4.56816000	-9.51648500
9.19999962	-2.81127000	-9.11663300
9.39999961	-0.87844490	-9.16584600
9.59999960	0.87844490	-9.92864100
9.79999959	2.10814500	-10.29158000
9.99999958	2.45940000	-9.97785300
10.19999956	2.10814500	-9.57800100
10.39999955	1.40563500	-9.97785300
10.59999954	0.52657480	-10.34080000
10.79999953	-0.35125490	-10.39001000
10.99999952	-0.87844490	-10.39001000
11.19999951	-1.05376500	-10.39001000
11.39999949	-0.87844490	-10.39001000
11.59999948	-0.70250980	-10.39001000
11.79999947	-0.35125490	-10.39001000
11.99999946	0.00000000	-10.39001000
12.19999945	0.00000000	-10.39001000
12.39999943	-0.17531990	-10.34080000
12.59999942	0.00000000	-9.97785300
12.79999941	-0.17531990	-9.57800100
12.99999940	-0.17531990	-9.97785300
13.19999939	-0.17531990	-10.34080000
13.39999937	0.00000000	-10.39001000
13.59999936	-0.17531990	-10.39001000
13.79999935	0.00000000	-10.39001000
13.99999934	0.00000000	-10.39001000
14.19999933	0.00000000	-10.39001000
14.39999932	0.00000000	-10.39001000
14.59999930	0.00000000	-10.39001000
14.79999929	0.00000000	-10.39001000
14.99999928	0.00000000	-10.39001000
15.19999927	0.00000000	-10.39001000
15.39999926	0.00000000	-10.39001000
15.59999924	0.00000000	-10.39001000
15.79999923	0.00000000	-10.39001000
15.99999922	0.00000000	-10.39001000
16.19999921	0.00000000	-10.39001000
16.39999920	0.00000000	-10.39001000
16.59999919	0.00000000	-10.39001000
16.79999917	0.00000000	-10.39001000
16.99999916	0.00000000	-10.39001000
17.19999915	0.00000000	-10.39001000
17.39999914	0.00000000	-10.39001000
17.59999913	0.00000000	-10.39001000
17.79999911	0.00000000	-10.39001000
17.99999910	0.00000000	-10.39001000
18.19999909	0.00000000	-10.39001000
18.39999908	0.00000000	-10.39001000
18.59999907	0.00000000	-10.39001000
18.79999905	0.00000000	-10.39001000
18.99999904	0.00000000	-10.39001000
19.19999903	0.00000000	-10.39001000
19.39999902	0.00000000	-10.39001000
19.59999901	0.00000000	-10.39001000
19.79999900	0.00000000	-10.39001000
19.99999898	0.00000000	-10.39001000
20.19999897	0.00000000	-10.39001000
20.39999896	0.00000000	-10.39001000
20.59999895	0.00000000	-10.39001000
20.79999894	0.00000000	-10.39001000
20.99999892	0.00000000	-10.39001000
21.19999891	0.00000000	-10.39001000
21.39999890	0.00000000	-10.34080000
21.59999889	0.00000000	-9.97785300
21.79999888	0.00000000	-9.57800100
21.99999886	0.00000000	-9.97785300
22.19999885	0.00000000	-10.34080000
22.39999884	0.00000000	-10.39001000
22.59999883	0.00000000	-10.39001000
22.79999882	0.00000000	-10.39001000
22.99999881	0.00000000	-10.43922000
23.19999879	0.00000000	-10.85138000
23.39999878	0.00000000	-11.65723000
23.59999877	0.00000000	-12.06939000
23.79999876	0.00000000	-12.11860000
23.99999875	0.00000000	-12.06939000
24.19999873	0.00000000	-11.65723000
24.39999872	0.00000000	-10.80217000
24.59999871	0.00000000	-9.92864100
24.79999870	0.00000000	-8.65526600
24.99999869	0.00000000	-7.43725300
25.19999867	0.00000000	-7.02509800
25.39999866	0.00000000	-7.43725300
25.59999865	0.00000000	-8.75369100
25.79999864	0.00000000	-10.90059000
25.99999863	0.00000000	-13.90256000
26.19999862	0.00000000	-17.21826000
26.39999860	0.00000000	-19.71580000
26.59999859	0.00000000	-20.07259000
26.79999858	0.00000000	-17.98105000
26.99999857	0.00000000	-13.70571000
27.19999856	0.00000000	-8.14468500
27.39999854	0.00000000	-1.77780500
27.59999853	0.00000000	3.98006900
27.79999852	0.00000000	6.47145600
27.99999851	0.00000000	4.38607300
28.19999850	0.00000000	-1.16264800
28.39999848	0.00000000	-9.72563900
28.59999847	0.00000000	-20.31865000
28.79999846	0.00000000	-30.41338000
28.99999845	0.00000000	-37.54921000
29.19999844	0.00000000	-39.13017000
29.39999843	0.00000000	-33.98130000
29.59999841	0.00000000	-22.52091000
29.79999840	0.00000000	-6.87746000
29.99999839	0.00000000	9.17814900
30.19999838	0.00000000	21.86270000
30.39999837	0.00000000	28.13115000
30.59999835	0.00000000	25.89198000
30.79999834	0.00000000	14.42544000
30.99999833	0.00000000	-4.21998000
31.19999832	0.00000000	-25.77510000
31.39999831	0.00000000	-45.64468000
31.59999829	0.00000000	-58.64911000
31.79999828	0.00000000	-61.18971000
31.99999827	0.00000000	-52.27608000
32.19999826	0.00000000	-34.03051000
32.39999825	0.00000000	-9.83021600
32.59999824	0.00000000	15.49582000
32.79999822	0.00000000	35.72834000
32.99999821	0.00000000	45.46014000
33.19999820	0.00000000	42.50738000
33.39999819	0.00000000	27.62672000
33.59999818	0.00000000	3.46948800
33.79999816	0.00000000	-24.80930000
33.99999815	0.00000000	-50.18454000
34.19999814	0.00000000	-66.70152000
34.39999813	0.00000000	-70.92765000
34.59999812	0.00000000	-61.60187000
34.79999810	0.00000000	-40.91412000
34.99999809	0.00000000	-13.80413000
35.19999808	0.00000000	13.66265000
35.39999807	0.00000000	35.26698000
35.59999806	0.00000000	45.87229000
35.79999805	0.00000000	43.77460000
35.99999803	0.00000000	29.35531000
36.19999802	0.00000000	5.76402500
36.39999801	0.00000000	-20.83538000
36.59999800	0.00000000	-43.76845000
36.79999799	0.00000000	-58.64911000
36.99999797	0.00000000	-62.82603000
37.19999796	0.00000000	-54.82283000
37.39999795	0.00000000	-36.68799000
37.59999794	0.00000000	-13.49040000
37.79999793	0.00000000	9.27657400
37.99999791	0.00000000	25.33218000
38.19999790	0.00000000	30.98548000
38.39999789	0.00000000	26.44562000
38.59999788	0.00000000	13.76107000
38.79999787	0.00000000	-3.92470400
38.99999786	0.00000000	-22.05955000
39.19999784	0.00000000	-35.61762000
39.39999783	0.00000000	-42.08292000
39.59999782	0.00000000	-40.81570000
39.79999781	0.00000000	-32.44956000
39.99999780	0.00000000	-19.40822000
40.19999778	0.00000000	-5.94857300
40.39999777	0.00000000	4.59522600
40.59999776	0.00000000	9.27657400
40.79999775	0.00000000	7.34498000
40.99999774	0.00000000	1.07037400
41.19999772	0.00000000	-7.33882900
41.39999771	0.00000000	-15.79109000
41.59999770	0.00000000	-21.70275000
41.79999769	0.00000000	-24.29872000
41.99999768	0.00000000	-23.02534000
42.19999767	0.00000000	-18.53469000
42.39999765	0.00000000	-13.08440000
42.59999764	0.00000000	-8.85211600
42.79999763	0.00000000	-6.25615100
42.99999762	0.00000000	-5.85014700
43.19999761	0.00000000	-7.43725300
43.39999759	0.00000000	-9.92864100
43.59999758	0.00000000	-12.02018000
43.79999757	0.00000000	-13.34276000
43.99999756	0.00000000	-13.70571000
44.19999755	0.00000000	-12.93676000
44.39999753	0.00000000	-11.30659000
44.59999752	0.00000000	-10.53765000
44.79999751	0.00000000	-10.90059000
44.99999750	0.00000000	-12.16781000
45.19999749	0.00000000	-13.85334000
45.39999748	0.00000000	-15.48351000
45.59999746	0.00000000	-16.29552000
45.79999745	0.00000000	-15.43430000
45.99999744	0.00000000	-13.34276000
46.19999743	0.00000000	-10.39001000
46.39999742	0.00000000	-7.48646600
46.59999740	0.00000000	-5.75172200
46.79999739	0.00000000	-5.38877900
46.99999738	0.00000000	-6.66830600
47.19999737	0.00000000	-10.02707000
47.39999736	0.00000000	-13.80413000
47.59999734	0.00000000	-17.21826000
47.79999733	0.00000000	-19.71580000
47.99999732	0.00000000	-20.12180000
48.19999731	0.00000000	-18.48548000
48.39999730	0.00000000	-15.53273000
48.59999729	0.00000000	-12.11860000
48.79999727	0.00000000	-8.70447700
48.99999726	0.00000000	-5.80093500
49.19999725	0.00000000	-4.52755900
49.39999724	0.00000000	-5.33956700
49.59999723	0.00000000	-7.38804100
49.79999721	0.00000000	-9.97785300
49.99999720	0.00000000	-12.48154000
50.19999719	0.00000000	-14.66535000
50.39999718	0.00000000	-15.94488000
50.59999717	0.00000000	-16.80610000
50.79999715	0.00000000	-16.75689000
50.99999714	0.00000000	-15.58194000
51.19999713	-0.17531990	-14.26550000
51.39999712	0.00000000	-12.98597000
51.59999711	0.00000000	-11.25738000
51.79999710	0.00000000	-9.97785300
51.99999708	0.00000000	-8.65526600
52.19999707	0.00000000	-7.43725300
52.39999706	0.00000000	-7.02509800
52.59999705	0.00000000	-7.43725300
52.79999704	0.00000000	-8.75369100
52.99999702	0.00000000	-10.85138000
53.19999701	0.00000000	-13.39198000
53.39999700	0.00000000	-15.48351000
53.59999699	0.00000000	-16.75689000
53.79999698	0.00000000	-16.75689000
53.99999696	0.00000000	-15.53273000
54.19999695	0.00000000	-13.80413000
54.39999694	0.00000000	-11.65723000
54.59999693	0.00000000	-9.16584600
54.79999692	0.00000000	-7.48646600
54.99999691	0.00000000	-7.02509800
55.19999689	0.00000000	-7.48646600
55.39999688	0.00000000	-9.21505800
55.59999687	0.00000000	-12.11860000
55.79999686	0.00000000	-15.02214000
55.99999685	0.00000000	-16.75689000
56.19999683	0.00000000	-17.16904000
56.39999682	0.00000000	-16.30167000
56.59999681	0.00000000	-13.80413000
56.79999680	0.00000000	-10.90059000
56.99999679	0.00000000	-8.75369100
57.19999677	0.00000000	-7.43725300
57.39999676	0.00000000	-7.12352300
57.59999675	0.00000000	-8.40305000
57.79999674	0.00000000	-11.70645000
57.99999673	0.00000000	-15.07136000
58.19999672	0.00000000	-17.67962000
58.39999670	0.00000000	-19.71580000
58.59999669	0.00000000	-19.66658000
58.79999668	0.00000000	-17.21826000
58.99999667	0.00000000	-13.85334000
59.19999666	0.00000000	-10.39001000
59.39999664	0.00000000	-7.02509800
59.59999663	0.00000000	-4.52755900
59.79999662	0.00000000	-4.17076700
59.99999661	0.00000000	-6.26230300
60.19999660	0.00000000	-10.43922000
60.39999658	0.00000000	-15.02214000
60.59999657	0.00000000	-18.48548000
60.79999656	0.00000000	-20.63238000
60.99999655	0.00000000	-21.44439000
61.19999654	0.00000000	-20.12180000
61.39999653	0.00000000	-16.80610000
61.59999651	0.00000000	-12.57997000
61.79999650	0.00000000	-8.75369100
61.99999649	0.00000000	-5.80093500
62.19999648	0.00000000	-4.57677100
62.39999647	0.00000000	-5.75172200
62.59999645	0.00000000	-8.24311000
62.79999644	0.00000000	-10.85138000
62.99999643	0.00000000	-13.80413000
63.19999642	0.00000000	-16.30167000
63.39999641	0.00000000	-17.21826000
63.59999639	0.00000000	-17.31668000
63.79999638	0.00000000	-17.26747000
63.99999637	0.00000000	-16.80610000
64.19999636	0.00000000	-15.48351000
64.39999635	0.00000000	-13.39198000
64.59999634	0.00000000	-10.90059000
64.79999632	0.00000000	-9.16584600
64.99999631	0.00000000	-8.24311000
65.19999630	0.00000000	-7.38804100
65.39999629	0.00000000	-7.02509800
65.59999628	0.00000000	-7.48646600
65.79999626	0.00000000	-9.21505800
65.99999625	0.00000000	-12.16781000
66.19999624	0.00000000	-15.53273000
66.39999623	0.00000000	-18.53469000
66.59999622	0.00000000	-20.63238000
66.79999620	0.00000000	-21.44439000
66.99999619	0.00000000	-20.17101000
67.19999618	0.00000000	-17.16904000
67.39999617	0.00000000	-12.93676000
67.59999616	0.00000000	-7.84325700
67.79999615	0.00000000	-3.70939900
67.99999613	0.00000000	-1.52559000
68.19999612	0.00000000	-1.97465500
68.39999611	0.00000000	-4.47834600
68.59999610	0.00000000	-8.80290300
68.79999609	0.00000000	-14.26550000
68.99999607	0.00000000	-19.76501000
69.19999606	0.00000000	-23.53592000
69.39999605	0.00000000	-24.85851000
69.59999604	0.00000000	-23.53592000
69.79999603	0.00000000	-19.76501000
69.99999601	0.00000000	-14.26550000
70.19999600	0.00000000	-8.75369100
70.39999599	0.00000000	-4.07234200
70.59999598	0.00000000	-1.16264800
70.79999597	0.00000000	-1.11343500
70.99999596	0.00000000	-3.61097400
71.19999594	0.00000000	-7.48646600
71.39999593	0.00000000	-12.57997000
71.59999592	0.00000000	-18.03026000
71.79999591	0.00000000	-21.85039000
71.99999590	0.00000000	-23.58514000
72.19999588	0.00000000	-23.12992000
72.39999587	0.00000000	-20.17101000
72.59999586	0.00000000	-15.58194000
72.79999585	0.00000000	-10.90059000
72.99999584	0.00000000	-7.02509800
73.19999582	0.00000000	-4.07234200
73.39999581	0.00000000	-2.84817900
73.59999580	0.00000000	-4.12155500
73.79999579	0.00000000	-7.48646600
73.99999578	0.00000000	-12.16781000
74.19999577	0.00000000	-17.16904000
74.39999575	0.00000000	-20.98302000
74.59999574	0.00000000	-22.31176000
74.79999573	0.00000000	-21.89960000
74.99999572	0.00000000	-19.75886000
75.19999571	0.00000000	-15.94488000
75.39999569	0.00000000	-11.70645000
75.59999568	0.00000000	-7.48646600
75.79999567	0.00000000	-4.57677100
75.99999566	0.00000000	-4.17076700
76.19999565	0.00000000	-6.26230300
76.39999563	0.00000000	-10.43922000
76.59999562	0.00000000	-15.12057000
76.79999561	0.00000000	-19.35900000
76.99999560	0.00000000	-22.71777000
77.19999559	0.00000000	-23.48671000
77.39999558	0.00000000	-21.44439000
77.59999556	0.00000000	-17.16904000
77.79999555	0.00000000	-11.70645000
77.99999554	0.00000000	-6.20693900
78.19999553	0.00000000	-2.43602300
78.39999552	0.00000000	-1.11343500
78.59999550	0.00000000	-2.43602300
78.79999549	0.00000000	-6.25615100
78.99999548	0.00000000	-12.16781000
79.19999547	0.00000000	-18.48548000
79.39999546	0.00000000	-23.58514000
79.59999544	0.00000000	-26.48868000
79.79999543	0.00000000	-26.03346000
79.99999542	0.00000000	-21.85039000
80.19999541	0.00000000	-15.53273000
80.39999540	0.00000000	-8.75369100
80.59999539	0.00000000	-2.79896600
80.79999537	0.00000000	0.97810030
80.99999536	0.00000000	1.83932100
81.19999535	0.00000000	-0.70743110
81.39999534	0.00000000	-5.80093500
81.59999533	0.00000000	-12.57997000
81.79999531	0.00000000	-19.70964000
81.99999530	0.00000000	-24.85851000
82.19999529	0.00000000	-27.46063000
82.39999528	0.00000000	-27.86048000
82.59999527	0.00000000	-25.26452000
82.79999525	0.00000000	-20.17101000
82.99999524	0.00000000	-13.39198000
83.19999523	0.00000000	-6.26230300
83.39999522	0.00000000	-1.16264800
83.59999521	0.00000000	1.02116100
83.79999520	0.00000000	0.61515740
83.99999518	0.00000000	-2.38681100
84.19999517	0.00000000	-7.48646600
84.39999516	0.00000000	-13.85334000
84.59999515	0.00000000	-20.17101000
84.79999514	0.00000000	-24.90772000
84.99999512	0.00000000	-27.46063000
85.19999511	0.00000000	-27.86048000
85.39999510	0.00000000	-25.26452000
85.59999509	0.00000000	-20.22022000
85.79999508	0.00000000	-13.85334000
85.99999506	0.00000000	-7.48646600
86.19999505	0.00000000	-2.38681100
86.39999504	0.00000000	0.61515740
86.59999503	0.00000000	1.02116100
86.79999502	0.00000000	-1.11343500
86.99999501	0.00000000	-5.85014700
87.19999499	0.00000000	-12.57997000
87.39999498	0.00000000	-19.75886000
87.59999497	0.00000000	-25.26452000
87.79999496	0.00000000	-28.27264000
87.99999495	0.00000000	-28.27264000
88.19999493	0.00000000	-25.31373000
88.39999492	0.00000000	-20.22022000
88.59999491	0.00000000	-13.85334000
88.79999490	0.00000000	-7.48646600
88.99999489	0.00000000	-2.43602300
89.19999487	0.00000000	0.10457680
89.39999486	0.00000000	-0.70743110
89.59999485	0.00000000	-4.07234200
89.79999484	0.00000000	-9.16584600
89.99999483	0.00000000	-15.12057000
90.19999482	0.00000000	-20.58317000
90.39999480	0.00000000	-24.44636000
90.59999479	0.00000000	-25.72589000
90.79999478	0.00000000	-24.90772000
90.99999477	0.00000000	-21.89960000
91.19999476	0.00000000	-17.26747000
91.39999474	0.00000000	-12.21703000
91.59999473	0.00000000	-7.94168200
91.79999472	0.00000000	-5.38877900
91.99999471	0.00000000	-4.52755900
92.19999470	0.00000000	-5.80093500
92.39999468	0.00000000	-8.75369100
92.59999467	0.00000000	-12.53076000
92.79999466	0.00000000	-16.34473000
92.99999465	0.00000000	-18.89764000
93.19999464	0.00000000	-20.22022000
93.39999463	0.00000000	-20.22022000
93.59999461	0.00000000	-18.94685000
93.79999460	0.00000000	-16.85531000
93.99999459	0.00000000	-14.31471000
94.19999458	0.00000000	-12.21703000
94.39999457	0.00000000	-10.90059000
94.59999455	0.00000000	-10.43922000
94.79999454	0.00000000	-10.43922000
94.99999453	0.00000000	-10.85138000
95.19999452	0.00000000	-11.70645000
95.39999451	0.00000000	-12.53076000
95.59999449	0.00000000	-13.44119000
95.79999448	0.00000000	-14.26550000
95.99999447	0.00000000	-15.12057000
96.19999446	0.00000000	-15.53273000
96.39999445	0.00000000	-15.63115000
96.59999444	0.00000000	-15.99409000
96.79999442	0.00000000	-16.34473000
96.99999441	0.00000000	-15.53273000
97.19999440	0.00000000	-14.31471000
97.39999439	0.00000000	-13.44119000
97.59999438	0.00000000	-12.57997000
97.79999436	0.00000000	-12.16781000
97.99999435	0.00000000	-12.11860000
98.19999434	0.00000000	-12.11860000
98.39999433	0.00000000	-12.16781000
98.59999432	0.00000000	-12.57997000
98.79999430	0.00000000	-13.44119000
98.99999429	0.00000000	-14.26550000
99.19999428	0.00000000	-15.12057000
99.39999427	0.00000000	-15.53273000
99.59999426	0.00000000	-15.58194000
99.79999425	0.00000000	-15.53273000
99.99999423	0.00000000	-15.12057000
100.19999422	0.00000000	-14.26550000
100.39999421	0.00000000	-13.39198000
100.59999420	0.00000000	-12.11860000
100.79999419	0.00000000	-10.94980000
100.99999417	0.00000000	-10.90059000
101.19999416	0.00000000	-11.70645000
101.39999415	0.00000000	-12.57997000
101.59999414	0.00000000	-13.85334000
101.79999413	0.00000000	-15.07136000
101.99999411	0.00000000	-15.53273000
102.19999410	0.00000000	-15.63115000
102.39999409	0.00000000	-15.99409000
102.59999408	0.00000000	-16.34473000
102.79999407	0.00000000	-15.48351000
102.99999406	0.00000000	-13.90256000
103.19999404	0.00000000	-12.62918000
103.39999403	0.00000000	-12.16781000
103.59999402	0.00000000	-12.16781000
103.79999401	0.00000000	-12.57997000
103.99999400	0.00000000	-13.44119000
104.19999398	0.00000000	-14.26550000
104.39999397	0.00000000	-15.16978000
104.59999396	0.00000000	-15.99409000
104.79999395	0.00000000	-16.80610000
104.99999394	0.00000000	-16.80610000
105.19999392	0.00000000	-15.99409000
105.39999391	0.00000000	-15.16978000
105.59999390	0.00000000	-14.26550000
105.79999389	0.00000000	-13.44119000
105.99999388	0.00000000	-12.57997000
106.19999387	0.00000000	-12.16781000
106.39999385	0.00000000	-12.16781000
106.59999384	0.00000000	-12.62918000
106.79999383	0.00000000	-13.90256000
106.99999382	0.00000000	-15.53273000
