Time	Channel A	Channel B
(us)	(V)	(mV)

-4.49999956	0.00000000	-46.75812000
-4.29999957	0.00000000	-46.75812000
-4.09999958	0.00000000	-46.75812000
-3.89999959	0.00000000	-46.75812000
-3.69999960	0.00000000	-46.75812000
-3.49999962	0.00000000	-46.75812000
-3.29999963	0.00000000	-46.75812000
-3.09999964	0.00000000	-46.75812000
-2.89999965	0.00000000	-46.75812000
-2.69999966	0.00000000	-46.75812000
-2.49999968	0.00000000	-46.75812000
-2.29999969	0.00000000	-46.75812000
-2.09999970	0.00000000	-46.75812000
-1.89999971	0.00000000	-46.75812000
-1.69999972	0.00000000	-46.75812000
-1.49999973	0.00000000	-46.75812000
-1.29999975	0.00000000	-46.75812000
-1.09999976	0.00000000	-46.75812000
-0.89999977	0.00000000	-46.75812000
-0.69999978	0.00000000	-46.75812000
-0.49999979	0.00000000	-46.75812000
-0.29999981	0.35125490	-46.75812000
-0.09999982	0.70250980	-46.75812000
0.10000017	1.05376500	-46.75812000
0.30000016	1.05376500	-46.75812000
0.50000015	0.70250980	-46.75812000
0.70000013	0.00000000	-46.75812000
0.90000012	-0.87844490	-46.75812000
1.10000011	-1.93282500	-46.75812000
1.30000010	-2.63533500	-46.75812000
1.50000009	-2.81127000	-46.75812000
1.70000008	-2.10814500	-46.75812000
1.90000006	-0.52657480	-46.75812000
2.10000005	1.40563500	-46.75812000
2.30000004	3.51377900	-46.80733000
2.50000003	4.91941500	-47.21949000
2.70000002	5.27128500	-48.02534000
2.90000000	4.21690500	-48.43750000
3.09999999	1.75689000	-48.48671000
3.29999998	-1.58095500	-48.43750000
3.49999997	-4.91941500	-48.02534000
3.69999996	-7.37942900	-47.21949000
3.89999994	-8.08255400	-46.80733000
4.09999993	-6.67691900	-46.75812000
4.29999992	-3.51377900	-46.75812000
4.49999991	0.87844490	-46.75812000
4.69999990	5.27128500	-46.80733000
4.89999989	8.43380900	-47.21949000
5.09999987	9.48818900	-48.02534000
5.29999986	8.25849000	-48.43750000
5.49999985	4.91941500	-48.43750000
5.69999984	0.17531990	-48.02534000
5.89999983	-4.56816000	-47.21949000
6.09999981	-8.08255400	-46.80733000
6.29999980	-9.48818900	-46.75812000
6.49999979	-8.60974400	-46.75812000
6.69999978	-5.62254000	-46.75812000
6.89999977	-1.40563500	-46.75812000
7.09999975	2.81127000	-46.80733000
7.29999974	6.14972900	-47.21949000
7.49999973	7.73129900	-47.97613000
7.69999972	7.20410900	-48.02534000
7.89999971	4.91941500	-47.67470000
8.09999970	1.75689000	-48.02534000
8.29999968	-1.40563500	-47.97613000
8.49999967	-3.86565000	-47.21949000
8.69999966	-5.09534900	-46.80733000
8.89999965	-4.91941500	-46.70890000
9.09999964	-3.51377900	-46.34596000
9.29999962	-1.58095500	-45.94611000
9.49999961	0.35125490	-46.34596000
9.69999960	1.75689000	-46.70890000
9.89999959	2.45940000	-46.75812000
10.09999958	2.28408000	-46.75812000
10.29999956	1.75689000	-46.75812000
10.49999955	0.87844490	-46.75812000
10.69999954	0.00000000	-46.75812000
10.89999953	-0.70250980	-46.75812000
11.09999952	-0.87844490	-46.75812000
11.29999951	-0.87844490	-46.75812000
11.49999949	-0.70250980	-46.75812000
11.69999948	-0.35125490	-46.75812000
11.89999947	0.00000000	-46.75812000
12.09999946	0.00000000	-46.75812000
12.29999945	0.00000000	-46.75812000
12.49999943	0.00000000	-46.75812000
12.69999942	-0.17531990	-46.75812000
12.89999941	-0.17531990	-46.75812000
13.09999940	-0.17531990	-46.75812000
13.29999939	0.00000000	-46.75812000
13.49999937	-0.17531990	-46.75812000
13.69999936	0.00000000	-46.75812000
13.89999935	0.00000000	-46.75812000
14.09999934	0.00000000	-46.75812000
14.29999933	0.00000000	-46.75812000
14.49999932	0.00000000	-46.75812000
14.69999930	0.00000000	-46.75812000
14.89999929	0.00000000	-46.75812000
15.09999928	0.00000000	-46.75812000
15.29999927	0.00000000	-46.75812000
15.49999926	0.00000000	-46.75812000
15.69999924	0.00000000	-46.75812000
15.89999923	0.00000000	-46.75812000
16.09999922	0.00000000	-46.75812000
16.29999921	0.00000000	-46.75812000
16.49999920	0.00000000	-46.75812000
16.69999919	0.00000000	-46.75812000
16.89999917	0.00000000	-46.75812000
17.09999916	0.00000000	-46.75812000
17.29999915	0.00000000	-46.75812000
17.49999914	0.00000000	-46.75812000
17.69999913	0.00000000	-46.80733000
17.89999911	0.00000000	-47.17027000
18.09999910	0.00000000	-47.57013000
18.29999909	0.00000000	-47.21949000
18.49999908	0.00000000	-47.21949000
18.69999907	0.00000000	-47.57013000
18.89999905	0.00000000	-47.17027000
19.09999904	0.00000000	-46.85654000
19.29999903	0.00000000	-47.21949000
19.49999902	0.00000000	-48.02534000
19.69999901	0.00000000	-48.38828000
19.89999900	0.00000000	-48.07455000
20.09999898	0.00000000	-47.67470000
20.29999897	0.00000000	-48.07455000
20.49999896	0.00000000	-48.43750000
20.69999895	0.00000000	-48.48671000
20.89999894	0.00000000	-48.43750000
21.09999892	0.00000000	-48.02534000
21.29999891	0.00000000	-47.26870000
21.49999890	0.00000000	-47.21949000
21.69999889	0.00000000	-47.57013000
21.89999888	0.00000000	-47.17027000
22.09999886	0.00000000	-46.85654000
22.29999885	0.00000000	-47.17027000
22.49999884	0.00000000	-47.57013000
22.69999883	0.00000000	-47.21949000
22.89999882	0.00000000	-47.26870000
23.09999881	0.00000000	-48.02534000
23.29999879	0.00000000	-48.43750000
23.49999878	0.00000000	-48.48671000
23.69999877	0.00000000	-48.48671000
23.89999876	0.00000000	-48.48671000
24.09999875	0.00000000	-48.43750000
24.29999873	0.00000000	-47.97613000
24.49999872	0.00000000	-46.70890000
24.69999871	0.00000000	-45.07259000
24.89999870	0.00000000	-43.80536000
25.09999869	0.00000000	-43.39321000
25.29999867	0.00000000	-43.85457000
25.49999866	0.00000000	-45.53395000
25.69999865	0.00000000	-48.07455000
25.89999864	0.00000000	-50.63361000
26.09999863	0.00000000	-53.22342000
26.29999862	0.00000000	-55.26574000
26.49999860	0.00000000	-56.07775000
26.69999859	0.00000000	-54.75516000
26.89999858	0.00000000	-51.34104000
27.09999857	0.00000000	-46.19833000
27.29999856	0.00000000	-39.88066000
27.49999854	0.00000000	-33.96899000
27.69999853	0.00000000	-30.24114000
27.89999852	0.00000000	-29.89050000
28.09999851	0.00000000	-34.16585000
28.29999850	0.00000000	-42.21825000
28.49999848	0.00000000	-52.46062000
28.69999847	0.00000000	-63.41658000
28.89999846	0.00000000	-72.18258000
29.09999845	0.00000000	-75.54749000
29.29999844	0.00000000	-72.54552000
29.49999843	0.00000000	-63.57037000
29.69999841	0.00000000	-49.51402000
29.89999840	0.00000000	-33.04626000
30.09999839	0.00000000	-17.86417000
30.29999838	0.00000000	-8.28001900
30.49999837	0.00000000	-7.46801100
30.69999835	0.00000000	-16.38164000
30.89999834	0.00000000	-32.94168000
31.09999833	0.00000000	-54.09695000
31.29999832	0.00000000	-75.23375000
31.49999831	0.00000000	-90.84029000
31.69999829	0.00000000	-97.60703000
31.89999828	0.00000000	-93.23326000
32.09999827	0.00000000	-77.99581000
32.29999826	0.00000000	-54.70595000
32.49999825	0.00000000	-28.96776000
32.69999824	0.00000000	-6.90821800
32.89999822	0.00000000	6.60063900
33.09999821	0.00000000	8.63065900
33.29999820	0.00000000	-2.42372000
33.49999819	0.00000000	-24.38484000
33.69999818	0.00000000	-51.90083000
33.89999816	0.00000000	-78.96161000
34.09999815	0.00000000	-99.24335000
34.29999814	0.00000000	-107.75710000
34.49999813	0.00000000	-103.11880000
34.69999812	0.00000000	-86.50344000
34.89999810	0.00000000	-60.76525000
35.09999809	0.00000000	-31.98204000
35.29999808	0.00000000	-7.45570800
35.49999807	0.00000000	8.17544300
35.69999806	0.00000000	10.26698000
35.89999805	0.00000000	-1.40871000
36.09999803	0.00000000	-22.55167000
36.29999802	0.00000000	-48.43750000
36.49999801	0.00000000	-73.76968000
36.69999800	0.00000000	-92.36589000
36.89999799	0.00000000	-99.65550000
37.09999797	0.00000000	-95.06643000
37.29999796	0.00000000	-80.23499000
37.49999795	0.00000000	-58.26771000
37.69999794	0.00000000	-34.67027000
37.89999793	0.00000000	-15.66191000
38.09999791	0.00000000	-5.88090500
38.29999790	0.00000000	-7.00664300
38.49999789	0.00000000	-17.50123000
38.69999788	0.00000000	-33.96899000
38.89999787	0.00000000	-52.56520000
39.09999786	0.00000000	-68.57160000
39.29999784	0.00000000	-77.94660000
39.49999783	0.00000000	-78.86318000
39.69999782	0.00000000	-72.18258000
39.89999781	0.00000000	-60.00246000
40.09999780	0.00000000	-46.13681000
40.29999778	0.00000000	-34.67027000
40.49999777	0.00000000	-27.89124000
40.69999776	0.00000000	-26.98696000
40.89999775	0.00000000	-31.92667000
41.09999774	0.00000000	-39.88066000
41.29999772	0.00000000	-48.33907000
41.49999771	0.00000000	-55.52411000
41.69999770	0.00000000	-59.29502000
41.89999769	0.00000000	-58.98745000
42.09999768	0.00000000	-55.26574000
42.29999767	0.00000000	-50.27066000
42.49999765	0.00000000	-45.58317000
42.69999764	0.00000000	-42.21825000
42.89999763	0.00000000	-40.94488000
43.09999762	0.00000000	-42.11983000
43.29999761	0.00000000	-44.56200000
43.49999759	0.00000000	-46.65969000
43.69999758	0.00000000	-47.97613000
43.89999757	0.00000000	-48.38828000
44.09999756	0.00000000	-48.02534000
44.29999755	0.00000000	-47.17027000
44.49999753	0.00000000	-46.39517000
44.69999752	0.00000000	-45.99532000
44.89999751	0.00000000	-46.90575000
45.09999750	0.00000000	-48.89886000
45.29999749	0.00000000	-50.98425000
45.49999748	0.00000000	-51.80241000
45.69999746	0.00000000	-51.39025000
45.89999745	0.00000000	-49.66166000
46.09999744	0.00000000	-46.70890000
46.29999743	0.00000000	-43.34399000
46.49999742	0.00000000	-40.44045000
46.69999740	0.00000000	-39.21629000
46.89999739	0.00000000	-40.44045000
47.09999738	0.00000000	-43.44242000
47.29999737	0.00000000	-47.67470000
47.49999736	0.00000000	-52.71899000
47.69999734	0.00000000	-56.44070000
47.89999733	0.00000000	-57.76328000
48.09999732	0.00000000	-56.53912000
48.29999731	0.00000000	-53.58636000
48.49999730	0.00000000	-49.76009000
48.69999729	0.00000000	-45.53395000
48.89999727	0.00000000	-42.21825000
49.09999726	0.00000000	-40.84645000
49.29999725	0.00000000	-41.19709000
49.49999724	0.00000000	-42.07062000
49.69999723	0.00000000	-43.85457000
49.89999721	0.00000000	-46.80733000
50.09999720	0.00000000	-50.12303000
50.29999719	0.00000000	-52.66978000
50.49999718	0.00000000	-53.58636000
50.69999717	0.00000000	-53.63558000
50.89999715	0.00000000	-53.17421000
51.09999714	0.00000000	-51.90083000
51.29999713	0.00000000	-50.22145000
51.49999712	0.00000000	-48.43750000
51.69999711	0.00000000	-46.29675000
51.89999710	0.00000000	-43.80536000
52.09999708	0.00000000	-42.11983000
52.29999707	0.00000000	-41.65846000
52.49999706	0.00000000	-42.11983000
52.69999705	0.00000000	-43.85457000
52.89999704	0.00000000	-46.75812000
53.09999702	0.00000000	-49.71087000
53.29999701	0.00000000	-51.90083000
53.49999700	0.00000000	-53.58636000
53.69999699	0.00000000	-54.34916000
53.89999698	0.00000000	-53.07578000
54.09999696	0.00000000	-50.22145000
54.29999695	0.00000000	-47.21949000
54.49999694	0.00000000	-44.66043000
54.69999693	0.00000000	-42.52583000
54.89999692	0.00000000	-41.75689000
55.09999691	0.00000000	-42.52583000
55.29999689	0.00000000	-44.66043000
55.49999688	0.00000000	-47.21949000
55.69999687	0.00000000	-50.17224000
55.89999686	0.00000000	-52.66978000
56.09999685	0.00000000	-53.48794000
56.29999683	0.00000000	-52.71899000
56.49999682	0.00000000	-50.58440000
56.69999681	0.00000000	-48.02534000
56.89999680	0.00000000	-45.07259000
57.09999679	0.00000000	-42.57505000
57.29999677	0.00000000	-41.75689000
57.49999676	0.00000000	-42.57505000
57.69999675	0.00000000	-45.12180000
57.89999674	0.00000000	-48.48671000
58.09999673	0.00000000	-51.85162000
58.29999672	0.00000000	-54.34916000
58.49999670	0.00000000	-54.75516000
58.69999669	0.00000000	-53.12500000
58.89999668	0.00000000	-50.17224000
59.09999667	0.00000000	-46.75812000
59.29999666	0.00000000	-43.39321000
59.49999664	0.00000000	-40.84645000
59.69999663	0.00000000	-40.02829000
59.89999662	0.00000000	-40.89567000
60.09999661	0.00000000	-43.85457000
60.29999660	0.00000000	-48.02534000
60.49999658	0.00000000	-51.80241000
60.69999657	0.00000000	-54.39837000
60.89999656	0.00000000	-55.21653000
61.09999655	0.00000000	-54.39837000
61.29999654	0.00000000	-51.85162000
61.49999653	0.00000000	-48.48671000
61.69999651	0.00000000	-45.07259000
61.89999650	0.00000000	-42.11983000
62.09999649	0.00000000	-40.44045000
62.29999648	0.00000000	-40.44045000
62.49999647	0.00000000	-42.11983000
62.69999645	0.00000000	-45.02337000
62.89999644	0.00000000	-47.97613000
63.09999643	0.00000000	-50.17224000
63.29999642	0.00000000	-51.85162000
63.49999641	0.00000000	-52.71284000
63.69999639	0.00000000	-52.31299000
63.89999638	0.00000000	-51.53789000
64.09999637	0.00000000	-50.63361000
64.29999636	0.00000000	-49.76009000
64.49999635	0.00000000	-48.43750000
64.69999634	0.00000000	-46.75812000
64.89999632	0.00000000	-45.02337000
65.09999631	0.00000000	-43.34399000
65.29999630	0.00000000	-42.11983000
65.49999629	0.00000000	-42.11983000
65.69999628	0.00000000	-43.39321000
65.89999626	0.00000000	-45.58317000
66.09999625	0.00000000	-48.94808000
66.29999624	0.00000000	-52.71284000
66.49999623	0.00000000	-55.26574000
66.69999622	0.00000000	-56.58833000
66.89999620	0.00000000	-56.48991000
67.09999619	0.00000000	-54.39837000
67.29999618	0.00000000	-50.58440000
67.49999617	0.00000000	-46.29675000
67.69999616	0.00000000	-41.65846000
67.89999615	0.00000000	-37.93676000
68.09999613	0.00000000	-37.06939000
68.29999612	0.00000000	-38.70571000
68.49999611	0.00000000	-42.16904000
68.69999610	0.00000000	-47.26870000
68.89999609	0.00000000	-53.12500000
69.09999607	0.00000000	-57.76328000
69.29999606	0.00000000	-59.95324000
69.49999605	0.00000000	-59.95324000
69.69999604	0.00000000	-57.76328000
69.89999603	0.00000000	-53.07578000
70.09999601	0.00000000	-46.80733000
70.29999600	0.00000000	-40.89567000
70.49999599	0.00000000	-37.06939000
70.69999598	0.00000000	-35.74680000
70.89999597	0.00000000	-37.02018000
71.09999596	0.00000000	-40.43430000
71.29999594	0.00000000	-45.48474000
71.49999593	0.00000000	-50.98425000
71.69999592	0.00000000	-55.26574000
71.89999591	0.00000000	-58.26771000
72.09999590	0.00000000	-59.44266000
72.29999588	0.00000000	-57.76328000
72.49999587	0.00000000	-53.58636000
72.69999586	0.00000000	-48.48671000
72.89999585	0.00000000	-43.39321000
73.09999584	0.00000000	-39.21014000
73.29999582	0.00000000	-37.48154000
73.49999581	0.00000000	-38.24434000
73.69999580	0.00000000	-40.39124000
73.89999579	0.00000000	-43.85457000
74.09999578	0.00000000	-48.48671000
74.29999577	0.00000000	-53.07578000
74.49999575	0.00000000	-56.03469000
74.69999574	0.00000000	-56.53912000
74.89999573	0.00000000	-55.26574000
75.09999572	0.00000000	-52.66363000
75.29999571	0.00000000	-48.43750000
75.49999569	0.00000000	-43.85457000
75.69999568	0.00000000	-40.44045000
75.89999567	0.00000000	-38.75492000
76.09999566	0.00000000	-39.21014000
76.29999565	0.00000000	-42.16904000
76.49999563	0.00000000	-46.75812000
76.69999562	0.00000000	-51.43946000
76.89999561	0.00000000	-55.26574000
77.09999560	0.00000000	-57.76328000
77.29999559	0.00000000	-57.71407000
77.49999558	0.00000000	-54.75516000
77.69999556	0.00000000	-49.71087000
77.89999555	0.00000000	-43.85457000
78.09999554	0.00000000	-39.21014000
78.29999553	0.00000000	-37.02018000
78.49999552	0.00000000	-37.02018000
78.69999550	0.00000000	-39.25935000
78.89999549	0.00000000	-44.30979000
79.09999548	0.00000000	-51.03346000
79.29999547	0.00000000	-56.90206000
79.49999546	0.00000000	-60.76525000
79.69999544	0.00000000	-61.58341000
79.89999543	0.00000000	-59.49188000
80.09999542	0.00000000	-54.75516000
80.29999541	0.00000000	-48.02534000
80.49999540	0.00000000	-40.89567000
80.69999539	0.00000000	-35.79601000
80.89999537	0.00000000	-33.60605000
81.09999536	0.00000000	-34.11663000
81.29999535	0.00000000	-37.93676000
81.49999534	0.00000000	-44.66043000
81.69999533	0.00000000	-51.80241000
81.89999531	0.00000000	-57.81250000
82.09999530	0.00000000	-61.63263000
82.29999529	0.00000000	-62.95521000
82.49999528	0.00000000	-61.63263000
82.69999527	0.00000000	-57.76328000
82.89999525	0.00000000	-51.43946000
83.09999524	0.00000000	-44.26058000
83.29999523	0.00000000	-38.34277000
83.49999522	0.00000000	-34.47342000
83.69999521	0.00000000	-33.65527000
83.89999520	0.00000000	-35.69759000
84.09999518	0.00000000	-40.02829000
84.29999517	0.00000000	-45.94611000
84.49999516	0.00000000	-52.71284000
84.69999515	0.00000000	-58.21850000
84.89999514	0.00000000	-61.68184000
85.09999512	0.00000000	-62.90600000
85.29999511	0.00000000	-61.22662000
85.49999510	0.00000000	-56.95128000
85.69999509	0.00000000	-51.03346000
85.89999508	0.00000000	-44.21136000
86.09999506	0.00000000	-38.29355000
86.29999505	0.00000000	-34.01820000
86.49999504	0.00000000	-32.38189000
86.69999503	0.00000000	-34.06742000
86.89999502	0.00000000	-38.70571000
87.09999501	0.00000000	-45.07259000
87.29999499	0.00000000	-51.85162000
87.49999498	0.00000000	-57.81250000
87.69999497	0.00000000	-61.63263000
87.89999496	0.00000000	-62.90600000
88.09999495	0.00000000	-61.17741000
88.29999493	0.00000000	-56.53912000
88.49999492	0.00000000	-50.22145000
88.69999491	0.00000000	-43.80536000
88.89999490	0.00000000	-38.29355000
89.09999489	0.00000000	-34.52264000
89.29999487	0.00000000	-34.06742000
89.49999486	0.00000000	-36.55881000
89.69999485	0.00000000	-40.79724000
89.89999484	0.00000000	-46.34596000
90.09999483	0.00000000	-51.85162000
90.29999482	0.00000000	-56.53912000
90.49999480	0.00000000	-59.44881000
90.69999479	0.00000000	-59.49803000
90.89999478	0.00000000	-57.00049000
91.09999477	0.00000000	-53.17421000
91.29999476	0.00000000	-48.48671000
91.49999474	0.00000000	-43.85457000
91.69999473	0.00000000	-40.44045000
91.89999472	0.00000000	-38.75492000
92.09999471	0.00000000	-39.16092000
92.29999470	0.00000000	-41.65846000
92.49999468	0.00000000	-45.02337000
92.69999467	0.00000000	-48.43750000
92.89999466	0.00000000	-51.43946000
93.09999465	0.00000000	-53.53715000
93.29999464	0.00000000	-54.39837000
93.49999463	0.00000000	-53.58636000
93.69999461	0.00000000	-51.95005000
93.89999460	0.00000000	-50.22145000
94.09999459	0.00000000	-48.48671000
94.29999458	0.00000000	-46.80733000
94.49999457	0.00000000	-45.53395000
94.69999455	0.00000000	-45.07259000
94.89999454	0.00000000	-45.07259000
95.09999453	0.00000000	-45.53395000
95.29999452	0.00000000	-46.75812000
95.49999451	0.00000000	-48.02534000
95.69999449	0.00000000	-48.89886000
95.89999448	0.00000000	-49.76009000
96.09999447	0.00000000	-50.17224000
96.29999446	0.00000000	-50.22145000
96.49999445	0.00000000	-50.22145000
96.69999444	0.00000000	-50.22145000
96.89999442	0.00000000	-50.17224000
97.09999441	0.00000000	-49.76009000
97.29999440	0.00000000	-48.89886000
97.49999439	0.00000000	-48.07455000
97.69999438	0.00000000	-47.17027000
97.89999436	0.00000000	-46.39517000
98.09999435	0.00000000	-45.94611000
98.29999434	0.00000000	-46.34596000
98.49999433	0.00000000	-46.75812000
98.69999432	0.00000000	-47.26870000
98.89999430	0.00000000	-48.48671000
99.09999429	0.00000000	-49.76009000
99.29999428	0.00000000	-50.63361000
99.49999427	0.00000000	-51.43946000
99.69999426	0.00000000	-51.43946000
99.89999425	0.00000000	-50.63361000
100.09999423	0.00000000	-49.76009000
100.29999422	0.00000000	-48.48671000
100.49999421	0.00000000	-47.21949000
100.69999420	0.00000000	-46.39517000
100.89999419	0.00000000	-45.94611000
101.09999417	0.00000000	-46.34596000
101.29999416	0.00000000	-46.75812000
101.49999415	0.00000000	-47.26870000
101.69999414	0.00000000	-48.48671000
101.89999413	0.00000000	-49.71087000
102.09999411	0.00000000	-50.17224000
102.29999410	0.00000000	-50.17224000
102.49999409	0.00000000	-49.76009000
102.69999408	0.00000000	-48.89886000
102.89999407	0.00000000	-48.07455000
103.09999406	0.00000000	-47.17027000
103.29999404	0.00000000	-46.34596000
103.49999403	0.00000000	-45.53395000
103.69999402	0.00000000	-45.53395000
103.89999401	0.00000000	-46.34596000
104.09999400	0.00000000	-47.17027000
104.29999398	0.00000000	-48.07455000
104.49999397	0.00000000	-48.89886000
104.69999396	0.00000000	-49.71087000
104.89999395	0.00000000	-49.71087000
105.09999394	0.00000000	-48.94808000
105.29999392	0.00000000	-48.48671000
105.49999391	0.00000000	-48.02534000
105.69999390	0.00000000	-47.17027000
105.89999389	0.00000000	-46.34596000
106.09999388	0.00000000	-45.48474000
