Time	Channel A	Channel B
(us)	(V)	(mV)

-4.59999956	0.00000000	-3.05118100
-4.39999957	0.00000000	-3.41412400
-4.19999958	0.00000000	-3.46333600
-3.99999959	0.00000000	-3.46333600
-3.79999960	0.00000000	-3.46333600
-3.59999962	0.00000000	-3.46333600
-3.39999963	0.00000000	-3.46333600
-3.19999964	0.00000000	-3.46333600
-2.99999965	0.00000000	-3.46333600
-2.79999966	0.00000000	-3.46333600
-2.59999968	0.00000000	-3.46333600
-2.39999969	0.00000000	-3.46333600
-2.19999970	0.00000000	-3.46333600
-1.99999971	0.00000000	-3.41412400
-1.79999972	0.00000000	-3.05118100
-1.59999973	0.00000000	-2.65132900
-1.39999975	0.00000000	-3.05118100
-1.19999976	0.00000000	-3.41412400
-0.99999977	0.00000000	-3.46333600
-0.79999978	0.00000000	-3.46333600
-0.59999979	0.00000000	-3.46333600
-0.39999981	0.17531990	-3.41412400
-0.19999982	0.52657480	-3.05118100
0.00000017	0.87844490	-2.65132900
0.20000016	1.05376500	-3.05118100
0.40000015	0.87844490	-3.41412400
0.60000013	0.35125490	-3.46333600
0.80000012	-0.35125490	-3.46333600
1.00000011	-1.40563500	-3.46333600
1.20000010	-2.28408000	-3.41412400
1.40000009	-2.81127000	-3.05118100
1.60000008	-2.45940000	-2.60211600
1.80000006	-1.40563500	-2.63902500
2.00000005	0.35125490	-2.60211600
2.20000004	2.45940000	-3.05118100
2.40000003	4.21690500	-3.41412400
2.60000002	5.27128500	-3.46333600
2.80000000	4.91941500	-3.46333600
2.99999999	3.16252500	-3.46333600
3.19999998	0.17531990	-3.46333600
3.39999997	-3.16252500	-3.41412400
3.59999996	-6.14972900	-3.00196800
3.79999994	-7.90661900	-2.18996000
3.99999993	-7.55536400	-1.82701800
4.19999992	-5.27128500	-2.14074800
4.39999991	-1.58095500	-2.54060000
4.59999990	2.98659000	-2.18996000
4.79999989	6.85223900	-2.23917300
4.99999987	9.13693400	-3.00196800
5.19999986	9.13693400	-3.41412400
5.39999985	6.85223900	-3.46333600
5.59999984	2.81127000	-3.41412400
5.79999983	-2.10814500	-3.05118100
5.99999981	-6.32566500	-2.60211600
6.19999980	-8.96099900	-2.58981300
6.39999979	-9.31225400	-2.14074800
6.59999978	-7.37942900	-1.77780500
6.79999977	-3.68971500	-1.77780500
6.99999975	0.70250980	-2.18996000
7.19999974	4.56816000	-3.00196800
7.39999973	7.02817400	-3.41412400
7.59999972	7.55536400	-3.46333600
7.79999971	6.14972900	-3.46333600
7.99999970	3.51377900	-3.41412400
8.19999968	0.17531990	-3.05118100
8.39999967	-2.81127000	-2.65132900
8.59999966	-4.56816000	-3.00196800
8.79999965	-5.09534900	-2.95275600
8.99999964	-4.39283900	-2.18996000
9.19999962	-2.63533500	-1.82701800
9.39999961	-0.70250980	-2.18996000
9.59999960	1.05376500	-3.00196800
9.79999959	2.10814500	-3.41412400
9.99999958	2.45940000	-3.46333600
10.19999956	2.10814500	-3.46333600
10.39999955	1.22970000	-3.46333600
10.59999954	0.35125490	-3.46333600
10.79999953	-0.35125490	-3.46333600
10.99999952	-0.87844490	-3.46333600
11.19999951	-0.87844490	-3.41412400
11.39999949	-0.87844490	-3.05118100
11.59999948	-0.52657480	-2.65132900
11.79999947	-0.17531990	-3.05118100
11.99999946	0.00000000	-3.36491100
12.19999945	0.00000000	-3.00196800
12.39999943	0.00000000	-2.23917300
12.59999942	-0.17531990	-2.23917300
12.79999941	-0.17531990	-2.95275600
12.99999940	-0.17531990	-2.95275600
13.19999939	-0.17531990	-2.18996000
13.39999937	-0.17531990	-1.82701800
13.59999936	0.00000000	-2.18996000
13.79999935	0.00000000	-3.00196800
13.99999934	0.00000000	-3.41412400
14.19999933	0.00000000	-3.46333600
14.39999932	0.00000000	-3.46333600
14.59999930	0.00000000	-3.46333600
14.79999929	0.00000000	-3.46333600
14.99999928	0.00000000	-3.46333600
15.19999927	0.00000000	-3.46333600
15.39999926	0.00000000	-3.46333600
15.59999924	0.00000000	-3.41412400
15.79999923	0.00000000	-3.00196800
15.99999922	0.00000000	-2.18996000
16.19999921	0.00000000	-1.82701800
16.39999920	0.00000000	-2.14074800
16.59999919	0.00000000	-2.58981300
16.79999917	0.00000000	-2.60211600
16.99999916	0.00000000	-3.05118100
17.19999915	0.00000000	-3.41412400
17.39999914	0.00000000	-3.41412400
17.59999913	0.00000000	-3.00196800
17.79999911	0.00000000	-2.18996000
17.99999910	0.00000000	-1.82701800
18.19999909	0.00000000	-2.14074800
18.39999908	0.00000000	-2.58981300
18.59999907	0.00000000	-2.60211600
18.79999905	0.00000000	-3.00196800
18.99999904	0.00000000	-3.00196800
19.19999903	0.00000000	-2.65132900
19.39999902	0.00000000	-3.05118100
19.59999901	0.00000000	-3.36491100
19.79999900	0.00000000	-3.05118100
19.99999898	0.00000000	-2.60211600
20.19999897	0.00000000	-2.63902500
20.39999896	0.00000000	-2.55290300
20.59999895	0.00000000	-2.63902500
20.79999894	0.00000000	-2.60211600
20.99999892	0.00000000	-3.05118100
21.19999891	0.00000000	-3.41412400
21.39999890	0.00000000	-3.41412400
21.59999889	0.00000000	-3.00196800
21.79999888	0.00000000	-2.18996000
21.99999886	0.00000000	-1.77780500
22.19999885	0.00000000	-1.72859200
22.39999884	0.00000000	-1.72859200
22.59999883	0.00000000	-1.77780500
22.79999882	0.00000000	-2.18996000
22.99999881	0.00000000	-3.00196800
23.19999879	0.00000000	-3.41412400
23.39999878	0.00000000	-3.46333600
23.59999877	0.00000000	-3.46333600
23.79999876	0.00000000	-3.46333600
23.99999875	0.00000000	-3.41412400
24.19999873	0.00000000	-2.95275600
24.39999872	0.00000000	-1.72859200
24.59999871	0.00000000	-0.46136810
24.79999870	0.00000000	0.41215550
24.99999869	0.00000000	1.21801200
25.19999867	0.00000000	1.16879900
25.39999866	0.00000000	-0.04921259
25.59999865	0.00000000	-1.82701800
25.79999864	0.00000000	-4.37992100
25.99999863	0.00000000	-7.73868000
26.19999862	0.00000000	-10.24237000
26.39999860	0.00000000	-11.50960000
26.59999859	0.00000000	-11.00517000
26.79999858	0.00000000	-8.04626000
26.99999857	0.00000000	-3.36491100
27.19999856	0.00000000	2.23917300
27.39999854	0.00000000	8.55684000
27.59999853	0.00000000	13.90871000
27.79999852	0.00000000	15.54503000
27.99999851	0.00000000	12.59227000
28.19999850	0.00000000	5.76402500
28.39999848	0.00000000	-4.02313000
28.59999847	0.00000000	-15.02214000
28.79999846	0.00000000	-24.71087000
28.99999845	0.00000000	-30.56717000
29.19999844	0.00000000	-30.41954000
29.39999843	0.00000000	-23.17913000
29.59999841	0.00000000	-9.63336600
29.79999840	0.00000000	6.82824800
29.99999839	0.00000000	22.52091000
30.19999838	0.00000000	33.88287000
30.39999837	0.00000000	38.01058000
30.59999835	0.00000000	32.86786000
30.79999834	0.00000000	18.81152000
30.99999833	0.00000000	-1.47637800
31.19999832	0.00000000	-23.88656000
31.39999831	0.00000000	-42.44586000
31.59999829	0.00000000	-52.99581000
31.79999828	0.00000000	-52.43602000
31.99999827	0.00000000	-39.74532000
32.19999826	0.00000000	-17.78420000
32.39999825	0.00000000	8.05241100
32.59999824	0.00000000	32.20350000
32.79999822	0.00000000	49.53248000
32.99999821	0.00000000	55.75172000
33.19999820	0.00000000	48.56053000
33.39999819	0.00000000	29.10310000
33.59999818	0.00000000	2.49753900
33.79999816	0.00000000	-25.52288000
33.99999815	0.00000000	-48.71432000
34.19999814	0.00000000	-61.85408000
34.39999813	0.00000000	-61.40501000
34.59999812	0.00000000	-47.89616000
34.79999810	0.00000000	-24.20029000
34.99999809	0.00000000	4.12770700
35.19999808	0.00000000	30.37032000
35.39999807	0.00000000	49.02190000
35.59999806	0.00000000	55.80093000
35.79999805	0.00000000	49.43405000
35.99999803	0.00000000	31.28691000
36.19999802	0.00000000	5.50565900
36.39999801	0.00000000	-21.09990000
36.59999800	0.00000000	-42.69808000
36.79999799	0.00000000	-54.16461000
36.99999797	0.00000000	-53.35261000
37.19999796	0.00000000	-41.16634000
37.39999795	0.00000000	-20.48474000
37.59999794	0.00000000	2.75590500
37.79999793	0.00000000	23.49286000
37.99999791	0.00000000	36.99557000
38.19999790	0.00000000	39.64690000
38.39999789	0.00000000	32.15428000
38.59999788	0.00000000	17.37205000
38.79999787	0.00000000	-1.17495100
38.99999786	0.00000000	-18.44857000
39.19999784	0.00000000	-29.90895000
39.39999783	0.00000000	-33.42150000
39.59999782	0.00000000	-29.25074000
39.79999781	0.00000000	-19.15600000
39.99999780	0.00000000	-5.70251000
40.19999778	0.00000000	6.88361200
40.39999777	0.00000000	15.03445000
40.59999776	0.00000000	17.63656000
40.79999775	0.00000000	15.13287000
40.99999774	0.00000000	8.05241100
41.19999772	0.00000000	-0.71358260
41.39999771	0.00000000	-7.94783400
41.59999770	0.00000000	-12.63533000
41.79999769	0.00000000	-13.90871000
41.99999768	0.00000000	-11.46038000
42.19999767	0.00000000	-6.92667200
42.39999765	0.00000000	-2.28838600
42.59999764	0.00000000	1.12573800
42.79999763	0.00000000	2.85433100
42.99999762	0.00000000	2.85433100
43.19999761	0.00000000	1.22416300
43.39999759	0.00000000	-1.22416300
43.59999758	0.00000000	-2.90354300
43.79999757	0.00000000	-3.36491100
43.99999756	0.00000000	-2.95275600
44.19999755	0.00000000	-1.77780500
44.39999753	0.00000000	-0.96579720
44.59999752	0.00000000	-1.41486200
44.79999751	0.00000000	-2.64517700
44.99999750	0.00000000	-4.77977300
45.19999749	0.00000000	-6.82824800
45.39999748	0.00000000	-8.04626000
45.59999746	0.00000000	-7.59104300
45.79999745	0.00000000	-5.09350300
45.99999744	0.00000000	-1.72859200
46.19999743	0.00000000	1.67938000
46.39999742	0.00000000	4.58292300
46.59999740	0.00000000	5.80708600
46.79999739	0.00000000	4.58292300
46.99999738	0.00000000	1.63016700
47.19999737	0.00000000	-2.18996000
47.39999736	0.00000000	-6.46530500
47.59999734	0.00000000	-10.19316000
47.79999733	0.00000000	-12.27854000
47.99999732	0.00000000	-11.46038000
48.19999731	0.00000000	-8.55684000
48.39999730	0.00000000	-4.73056000
48.59999729	0.00000000	-0.51058070
48.79999727	0.00000000	2.90354300
48.99999726	0.00000000	5.04429100
49.19999725	0.00000000	5.85629900
49.39999724	0.00000000	4.58292300
49.59999723	0.00000000	1.67938000
49.79999721	0.00000000	-1.67938000
49.99999720	0.00000000	-4.68134800
50.19999719	0.00000000	-6.82824800
50.39999718	-0.17531990	-8.09547100
50.59999717	0.00000000	-8.14468500
50.79999715	0.00000000	-7.33882900
50.99999714	0.00000000	-6.46530500
51.19999713	0.00000000	-5.09350300
51.39999712	0.00000000	-3.00196800
51.59999711	0.00000000	-0.51058070
51.79999710	0.00000000	1.21801200
51.99999708	0.00000000	2.09153500
52.19999707	0.00000000	2.54060000
52.39999706	0.00000000	2.04232300
52.59999705	0.00000000	0.81200780
52.79999704	0.00000000	-1.32258800
52.99999702	0.00000000	-3.41412400
53.19999701	0.00000000	-5.19192900
53.39999700	0.00000000	-6.87746000
53.59999699	-0.17531990	-8.04626000
53.79999698	0.00000000	-7.64025500
53.99999696	0.00000000	-5.55487200
54.19999695	0.00000000	-3.05118100
54.39999694	0.00000000	-0.46136810
54.59999693	0.00000000	1.63016700
54.79999692	0.00000000	2.90354300
54.99999691	0.00000000	2.85433100
55.19999689	0.00000000	1.17495100
55.39999688	0.00000000	-1.72859200
55.59999687	0.00000000	-4.68134800
55.79999686	0.00000000	-6.82824800
55.99999685	0.00000000	-8.09547100
56.19999683	0.00000000	-8.04626000
56.39999682	0.00000000	-6.36687900
56.59999681	0.00000000	-3.46333600
56.79999680	0.00000000	-0.51058070
56.99999679	0.00000000	1.63016700
57.19999677	0.00000000	2.90354300
57.39999676	0.00000000	2.85433100
57.59999675	0.00000000	1.17495100
57.79999674	0.00000000	-1.77780500
57.99999673	0.00000000	-5.09350300
58.19999672	0.00000000	-7.64025500
58.39999670	0.00000000	-8.50762700
58.59999669	0.00000000	-8.04626000
58.79999668	0.00000000	-5.90551100
58.99999667	0.00000000	-2.18996000
59.19999666	0.00000000	1.17495100
59.39999664	0.00000000	3.36491100
59.59999663	0.00000000	4.58292300
59.79999662	-0.17531990	4.12770700
59.99999661	0.00000000	1.63016700
60.19999660	0.00000000	-1.72859200
60.39999658	0.00000000	-5.14271600
60.59999657	0.00000000	-8.09547100
60.79999656	0.00000000	-9.73179100
60.99999655	0.00000000	-9.32578700
61.19999654	0.00000000	-6.82824800
61.39999653	0.00000000	-3.46333600
61.59999651	0.00000000	-0.04921259
61.79999650	0.00000000	2.90354300
61.99999649	0.00000000	4.58292300
62.19999648	0.00000000	4.58292300
62.39999647	0.00000000	2.95275600
62.59999645	0.00000000	0.41215550
62.79999644	0.00000000	-2.14074800
62.99999643	0.00000000	-4.68134800
63.19999642	0.00000000	-6.41609200
63.39999641	0.00000000	-7.24040300
63.59999639	0.00000000	-7.27731300
63.79999638	0.00000000	-6.01008800
63.99999637	0.00000000	-4.77977300
64.19999636	0.00000000	-3.46333600
64.39999635	0.00000000	-2.18996000
64.59999634	0.00000000	-1.26722400
64.79999632	0.00000000	0.04921259
64.99999631	0.00000000	1.67938000
65.19999630	0.00000000	2.90354300
65.39999629	0.00000000	2.90354300
65.59999628	0.00000000	1.63016700
65.79999626	0.00000000	-0.51058070
65.99999625	0.00000000	-3.46333600
66.19999624	0.00000000	-6.46530500
66.39999623	0.00000000	-9.01820900
66.59999622	0.00000000	-11.10359000
66.79999620	0.00000000	-11.41117000
66.99999619	0.00000000	-9.31963500
67.19999618	0.00000000	-5.14271600
67.39999617	0.00000000	-0.46136810
67.59999616	0.00000000	3.82627900
67.79999615	0.00000000	7.59104300
67.99999613	0.00000000	9.22121000
68.19999612	0.00000000	7.94783400
68.39999611	0.00000000	4.17691900
68.59999610	0.00000000	-1.32258800
68.79999609	0.00000000	-6.82824800
68.99999607	0.00000000	-11.50960000
69.19999606	0.00000000	-14.41929000
69.39999605	0.00000000	-14.41929000
69.59999604	0.00000000	-11.50960000
69.79999603	0.00000000	-6.82824800
69.99999601	0.00000000	-1.32258800
70.19999600	0.00000000	4.17691900
70.39999599	0.00000000	7.99704600
70.59999598	0.00000000	9.73179100
70.79999597	0.00000000	9.22736200
70.99999596	0.00000000	5.86245000
71.19999594	0.00000000	0.41215550
71.39999593	0.00000000	-5.09350300
71.59999592	0.00000000	-9.78100300
71.79999591	0.00000000	-12.73991000
71.99999590	0.00000000	-13.19513000
72.19999588	0.00000000	-11.50960000
72.39999587	0.00000000	-8.09547100
72.59999586	0.00000000	-3.46333600
72.79999585	0.00000000	1.21801200
72.99999584	0.00000000	5.04429100
73.19999582	0.00000000	7.54183000
73.39999581	0.00000000	7.54183000
73.59999580	0.00000000	5.04429100
73.79999579	0.00000000	1.21801200
73.99999578	0.00000000	-3.46333600
74.19999577	0.00000000	-8.04626000
74.39999575	0.00000000	-11.00517000
74.59999574	0.00000000	-11.46038000
74.79999573	0.00000000	-9.78100300
74.99999572	0.00000000	-6.41609200
75.19999571	0.00000000	-2.18996000
75.39999569	0.00000000	1.63016700
75.59999568	0.00000000	4.63213500
75.79999567	0.00000000	6.26845500
75.99999566	0.00000000	5.81323800
76.19999565	0.00000000	2.85433100
76.39999563	0.00000000	-1.72859200
76.59999562	0.00000000	-6.41609200
76.79999561	0.00000000	-10.19316000
76.99999560	0.00000000	-12.27854000
77.19999559	0.00000000	-11.41117000
77.39999558	0.00000000	-8.09547100
77.59999556	0.00000000	-3.41412400
77.79999555	0.00000000	1.67938000
77.99999554	0.00000000	6.31766700
78.19999553	0.00000000	9.22736200
78.39999552	0.00000000	9.22736200
78.59999550	0.00000000	6.26845500
78.79999549	0.00000000	1.17495100
78.99999548	0.00000000	-5.14271600
79.19999547	0.00000000	-11.05438000
79.39999546	0.00000000	-14.87451000
79.59999544	0.00000000	-16.14788000
79.79999543	0.00000000	-14.37008000
79.99999542	0.00000000	-9.31963500
80.19999541	0.00000000	-2.18996000
80.39999540	0.00000000	4.58907500
80.59999539	0.00000000	9.68257800
80.79999537	0.00000000	12.22933000
80.99999536	0.00000000	11.36196000
81.19999535	0.00000000	7.59104300
81.39999534	0.00000000	1.63016700
81.59999533	0.00000000	-5.14271600
81.79999531	0.00000000	-11.50960000
81.99999530	0.00000000	-16.14788000
82.19999529	0.00000000	-17.83341000
82.39999528	0.00000000	-16.14788000
82.59999527	0.00000000	-11.50960000
82.79999525	0.00000000	-5.14271600
82.99999524	0.00000000	1.63016700
83.19999523	0.00000000	7.59104300
83.39999522	0.00000000	11.41117000
83.59999521	0.00000000	12.68455000
83.79999520	0.00000000	10.95595000
83.99999518	0.00000000	6.31766700
84.19999517	0.00000000	0.00000000
84.39999516	0.00000000	-6.41609200
84.59999515	0.00000000	-11.92175000
84.79999514	0.00000000	-15.79109000
84.99999512	0.00000000	-17.02141000
85.19999511	0.00000000	-15.74188000
85.39999510	0.00000000	-11.46038000
85.59999509	0.00000000	-5.19192900
85.79999508	0.00000000	1.22416300
85.99999506	0.00000000	6.77903500
86.19999505	0.00000000	11.00517000
86.39999504	0.00000000	12.68455000
86.59999503	0.00000000	11.41117000
86.79999502	0.00000000	7.59104300
86.99999501	0.00000000	1.63016700
87.19999499	0.00000000	-5.14271600
87.39999498	0.00000000	-11.46038000
87.59999497	0.00000000	-15.69267000
87.79999496	0.00000000	-16.60925000
87.99999495	0.00000000	-14.92372000
88.19999493	0.00000000	-11.05438000
88.39999492	0.00000000	-5.09350300
88.59999491	0.00000000	1.63016700
88.79999490	0.00000000	7.54183000
88.99999489	0.00000000	10.95595000
89.19999487	0.00000000	11.41117000
89.39999486	0.00000000	9.31963500
89.59999485	0.00000000	5.04429100
89.79999484	0.00000000	-0.46136810
89.99999483	0.00000000	-6.36687900
90.19999482	0.00000000	-11.05438000
90.39999480	0.00000000	-13.60728000
90.59999479	0.00000000	-14.05635000
90.79999478	0.00000000	-11.92175000
90.99999477	0.00000000	-8.14468500
91.19999476	0.00000000	-3.46333600
91.39999474	0.00000000	1.16879900
91.59999473	0.00000000	4.58292300
91.79999472	0.00000000	6.31766700
91.99999471	0.00000000	6.31766700
92.19999470	0.00000000	4.63213500
92.39999468	0.00000000	1.67938000
92.59999467	0.00000000	-1.72859200
92.79999466	0.00000000	-5.09350300
92.99999465	0.00000000	-7.64025500
93.19999464	0.00000000	-8.50762700
93.39999463	0.00000000	-8.09547100
93.59999461	0.00000000	-6.41609200
93.79999460	0.00000000	-3.92470400
93.99999459	0.00000000	-1.77780500
94.19999458	0.00000000	-0.04921259
94.39999457	0.00000000	1.21801200
94.59999455	0.00000000	1.63016700
94.79999454	0.00000000	1.26722400
94.99999453	0.00000000	0.41215550
95.19999452	0.00000000	-0.41215550
95.39999451	0.00000000	-1.31643700
95.59999449	0.00000000	-2.14074800
95.79999448	0.00000000	-3.00196800
95.99999447	0.00000000	-3.41412400
96.19999446	0.00000000	-3.46333600
96.39999445	0.00000000	-3.41412400
96.59999444	0.00000000	-3.05118100
96.79999442	0.00000000	-2.60211600
96.99999441	0.00000000	-2.58981300
97.19999440	0.00000000	-2.09153500
97.39999439	0.00000000	-1.31643700
97.59999438	0.00000000	-0.46136810
97.79999436	0.00000000	-0.04921259
97.99999435	0.00000000	0.00000000
98.19999434	0.00000000	-0.04921259
98.39999433	0.00000000	-0.46136810
98.59999432	0.00000000	-1.31643700
98.79999430	0.00000000	-2.14074800
98.99999429	0.00000000	-3.05118100
99.19999428	0.00000000	-3.87549200
99.39999427	0.00000000	-4.73056000
99.59999426	0.00000000	-5.09350300
99.79999425	0.00000000	-4.68134800
99.99999423	0.00000000	-3.41412400
100.19999422	0.00000000	-1.77780500
100.39999421	0.00000000	-0.51058070
100.59999420	0.00000000	-0.04921259
100.79999419	0.00000000	0.00000000
100.99999417	0.00000000	-0.04921259
101.19999416	0.00000000	-0.51058070
101.39999415	0.00000000	-1.72859200
101.59999414	0.00000000	-3.00196800
101.79999413	0.00000000	-3.87549200
101.99999411	0.00000000	-4.68134800
102.19999410	0.00000000	-4.68134800
102.39999409	0.00000000	-3.87549200
102.59999408	0.00000000	-3.05118100
102.79999407	0.00000000	-2.14074800
102.99999406	0.00000000	-1.31643700
103.19999404	0.00000000	-0.46136810
103.39999403	0.00000000	-0.04921259
103.59999402	0.00000000	-0.04921259
103.79999401	0.00000000	-0.46136810
103.99999400	0.00000000	-1.31643700
104.19999398	0.00000000	-2.14074800
104.39999397	0.00000000	-3.00196800
104.59999396	0.00000000	-3.41412400
104.79999395	0.00000000	-3.46333600
104.99999394	0.00000000	-3.41412400
105.19999392	0.00000000	-2.95275600
105.39999391	0.00000000	-1.72859200
105.59999390	0.00000000	-0.51058070
105.79999389	0.00000000	-0.04921259
105.99999388	0.00000000	0.00000000
106.19999387	0.00000000	0.00000000
106.39999385	0.00000000	-0.04921259
106.59999384	0.00000000	-0.51058070
106.79999383	0.00000000	-1.72859200
106.99999382	0.00000000	-3.00196800
107.19999381	0.00000000	-3.87549200
107.39999379	0.00000000	-4.68134800
107.59999378	0.00000000	-4.68134800
107.79999377	0.00000000	-3.82627900
107.99999376	0.00000000	-2.59596400
108.19999375	0.00000000	-0.91658460
108.39999374	0.00000000	-0.04921259
108.59999372	0.00000000	0.41215550
108.79999371	0.00000000	0.76279520
108.99999370	0.00000000	-0.09842519
109.19999369	0.00000000	-1.72859200
