Time	Channel A	Channel B
(us)	(V)	(mV)

-4.59999956	0.00000000	25.55979000
-4.39999957	0.00000000	25.25836000
-4.19999958	0.00000000	26.48253000
-3.99999959	0.00000000	28.46949000
-3.79999960	0.00000000	29.28765000
-3.59999962	0.00000000	28.87549000
-3.39999963	0.00000000	27.29453000
-3.19999964	0.00000000	25.71973000
-2.99999965	0.00000000	26.07037000
-2.79999966	0.00000000	27.14690000
-2.59999968	0.00000000	27.24532000
-2.39999969	0.00000000	26.89468000
-2.19999970	0.00000000	27.24532000
-1.99999971	0.00000000	27.19611000
-1.79999972	0.00000000	26.43332000
-1.59999973	0.00000000	26.02116000
-1.39999975	0.00000000	26.02116000
-1.19999976	0.00000000	26.38410000
-0.99999977	0.00000000	26.78395000
-0.79999978	0.00000000	26.38410000
-0.59999979	0.00000000	26.02116000
-0.39999981	0.17531990	25.97195000
-0.19999982	0.52657480	25.97195000
0.00000017	0.87844490	25.97195000
0.20000016	1.05376500	25.92274000
0.40000015	0.87844490	25.55979000
0.60000013	0.52657480	25.15994000
0.80000012	-0.17531990	25.55979000
1.00000011	-1.22970000	25.97195000
1.20000010	-2.28408000	26.43332000
1.40000009	-2.81127000	27.24532000
1.60000008	-2.63533500	27.60827000
1.80000006	-1.75689000	27.29453000
2.00000005	0.00000000	26.84547000
2.20000004	2.10814500	26.83317000
2.40000003	4.04096900	26.38410000
2.60000002	5.27128500	25.97195000
2.80000000	5.09534900	25.51058000
2.99999999	3.51377900	24.70472000
3.19999998	0.70250980	24.29257000
3.39999997	-2.63533500	24.29257000
3.59999996	-5.79847400	24.75394000
3.79999994	-7.73129900	25.97195000
3.99999993	-7.73129900	27.19611000
4.19999992	-5.79847400	27.65748000
4.39999991	-2.10814500	27.70669000
4.59999990	2.28408000	27.70669000
4.79999989	6.32566500	27.65748000
4.99999987	8.96099900	27.19611000
5.19999986	9.31225400	25.97195000
5.39999985	7.37942900	24.75394000
5.59999984	3.51377900	24.29257000
5.79999983	-1.22970000	24.29257000
5.99999981	-5.62254000	24.75394000
6.19999980	-8.60974400	25.97195000
6.39999979	-9.48818900	27.19611000
6.59999978	-7.73129900	27.70669000
6.79999977	-4.39283900	28.11885000
6.99999975	0.00000000	28.51870000
7.19999974	4.04096900	28.06963000
7.39999973	6.85223900	27.29453000
7.59999972	7.73129900	26.43332000
7.79999971	6.67691900	26.02116000
7.99999970	4.04096900	25.97195000
8.19999968	0.70250980	25.97195000
8.39999967	-2.28408000	25.97195000
8.59999966	-4.39283900	25.97195000
8.79999965	-5.09534900	25.97195000
8.99999964	-4.56816000	26.02116000
9.19999962	-2.98659000	26.48253000
9.39999961	-1.05376500	27.65748000
9.59999960	0.87844490	28.42027000
9.79999959	2.10814500	27.65748000
9.99999958	2.45940000	26.48253000
10.19999956	2.10814500	25.97195000
10.39999955	1.40563500	25.55979000
10.59999954	0.52657480	25.25836000
10.79999953	-0.17531990	26.48253000
10.99999952	-0.70250980	28.37106000
11.19999951	-1.05376500	28.37106000
11.39999949	-0.87844490	26.48253000
11.59999948	-0.70250980	25.30758000
11.79999947	-0.35125490	25.92274000
11.99999946	0.00000000	26.32874000
12.19999945	0.00000000	25.57210000
12.39999943	0.00000000	25.60900000
12.59999942	-0.17531990	25.92274000
12.79999941	-0.17531990	25.97195000
12.99999940	-0.17531990	25.97195000
13.19999939	-0.17531990	25.97195000
13.39999937	0.00000000	25.97195000
13.59999936	0.00000000	25.97195000
13.79999935	0.00000000	25.97195000
13.99999934	0.00000000	25.97195000
14.19999933	0.00000000	25.97195000
14.39999932	0.00000000	25.92274000
14.59999930	0.00000000	25.55979000
14.79999929	0.00000000	25.15994000
14.99999928	0.00000000	25.55979000
15.19999927	0.00000000	25.92274000
15.39999926	0.00000000	25.92274000
15.59999924	0.00000000	25.51058000
15.79999923	0.00000000	24.75394000
15.99999922	0.00000000	24.75394000
16.19999921	0.00000000	25.51058000
16.39999920	0.00000000	25.87352000
16.59999919	0.00000000	25.55979000
16.79999917	0.00000000	25.15994000
16.99999916	0.00000000	25.55979000
17.19999915	0.00000000	25.92274000
17.39999914	0.00000000	25.97195000
17.59999913	0.00000000	25.97195000
17.79999911	0.00000000	25.97195000
17.99999910	0.00000000	25.97195000
18.19999909	0.00000000	25.97195000
18.39999908	0.00000000	25.97195000
18.59999907	0.00000000	25.97195000
18.79999905	0.00000000	25.97195000
18.99999904	0.00000000	25.97195000
19.19999903	0.00000000	25.97195000
19.39999902	0.00000000	25.97195000
19.59999901	0.00000000	25.97195000
19.79999900	0.00000000	25.97195000
19.99999898	0.00000000	25.97195000
20.19999897	0.00000000	25.97195000
20.39999896	0.00000000	26.02116000
20.59999895	0.00000000	26.38410000
20.79999894	0.00000000	26.78395000
20.99999892	0.00000000	26.38410000
21.19999891	0.00000000	26.02116000
21.39999890	0.00000000	25.97195000
21.59999889	0.00000000	25.97195000
21.79999888	0.00000000	26.02116000
21.99999886	0.00000000	26.38410000
22.19999885	0.00000000	26.78395000
22.39999884	0.00000000	26.38410000
22.59999883	0.00000000	26.02116000
22.79999882	0.00000000	25.97195000
22.99999881	0.00000000	25.97195000
23.19999879	0.00000000	25.97195000
23.39999878	0.00000000	25.92274000
23.59999877	0.00000000	25.51058000
23.79999876	0.00000000	24.75394000
23.99999875	0.00000000	24.80315000
24.19999873	0.00000000	25.92274000
24.39999872	0.00000000	26.73474000
24.59999871	0.00000000	26.48253000
24.79999870	0.00000000	26.93774000
24.99999869	0.00000000	28.56791000
25.19999867	0.00000000	29.79823000
25.39999866	0.00000000	30.61023000
25.59999865	0.00000000	30.10580000
25.79999864	0.00000000	27.55905000
25.99999863	0.00000000	23.78199000
26.19999862	0.00000000	19.70349000
26.39999860	0.00000000	17.56890000
26.59999859	0.00000000	18.32554000
26.79999858	0.00000000	19.96186000
26.99999857	0.00000000	22.75467000
27.19999856	0.00000000	27.39911000
27.39999854	0.00000000	33.71678000
27.59999853	0.00000000	39.02559000
27.79999852	0.00000000	41.20940000
27.99999851	0.00000000	39.43774000
28.19999850	0.00000000	34.32578000
28.39999848	0.00000000	25.77510000
28.59999847	0.00000000	15.68036000
28.79999846	0.00000000	6.36072800
28.99999845	0.00000000	0.09227362
29.19999844	0.00000000	-1.08267700
29.39999843	0.00000000	4.10925100
29.59999841	0.00000000	15.52657000
29.79999840	0.00000000	30.70866000
29.99999839	0.00000000	45.49089000
30.19999838	0.00000000	56.54527000
30.39999837	0.00000000	61.54650000
30.59999835	0.00000000	58.94439000
30.79999834	-0.17531990	48.24680000
30.99999833	0.00000000	31.27460000
31.19999832	0.00000000	11.04823000
31.39999831	0.00000000	-6.99434000
31.59999829	0.00000000	-17.18750000
31.79999828	0.00000000	-17.64272000
31.99999827	0.00000000	-8.67371900
32.19999826	0.00000000	8.74753900
32.39999825	0.00000000	31.17003000
32.59999824	0.00000000	53.59251000
32.79999822	0.00000000	70.87228000
32.99999821	0.00000000	78.46333000
33.19999820	0.00000000	74.23720000
33.39999819	0.00000000	59.39960000
33.59999818	0.00000000	36.93405000
33.79999816	0.00000000	11.60187000
33.99999815	0.00000000	-10.35925000
34.19999814	0.00000000	-23.50517000
34.39999813	0.00000000	-25.23376000
34.59999812	0.00000000	-15.45275000
34.79999810	0.00000000	4.01082700
34.99999809	0.00000000	28.92470000
35.19999808	0.00000000	52.98351000
35.39999807	0.00000000	70.36171000
35.59999806	0.00000000	77.14075000
35.79999805	0.00000000	72.09030000
35.99999803	0.00000000	56.44685000
36.19999802	0.00000000	34.07357000
36.39999801	0.00000000	10.43307000
36.59999800	0.00000000	-8.62450800
36.79999799	0.00000000	-18.81767000
36.99999797	0.00000000	-18.45472000
37.19999796	0.00000000	-7.86171200
37.39999795	0.00000000	10.23007000
37.59999794	0.00000000	31.32382000
37.79999793	0.00000000	49.47096000
37.99999791	0.00000000	60.52534000
38.19999790	0.00000000	62.26008000
38.39999789	0.00000000	54.71825000
38.59999788	0.00000000	40.44660000
38.79999787	0.00000000	23.57899000
38.99999786	0.00000000	8.74753900
39.19999784	0.00000000	-1.03346500
39.39999783	0.00000000	-3.93700800
39.59999782	0.00000000	1.10728300
39.79999781	0.00000000	12.77682000
39.99999780	0.00000000	26.64247000
40.19999778	0.00000000	38.51501000
40.39999777	0.00000000	46.10605000
40.59999776	0.00000000	47.33021000
40.79999775	0.00000000	41.57234000
40.99999774	0.00000000	31.63140000
41.19999772	0.00000000	21.94267000
41.39999771	0.00000000	15.06521000
41.59999770	0.00000000	11.65108000
41.79999769	0.00000000	12.11245000
41.99999768	0.00000000	16.65231000
42.19999767	0.00000000	23.32062000
42.39999765	0.00000000	29.18922000
42.59999764	0.00000000	33.15699000
42.79999763	0.00000000	34.84867000
42.99999762	0.00000000	34.83636000
43.19999761	0.00000000	32.28962000
43.39999759	0.00000000	28.16806000
43.59999758	0.00000000	24.39099000
43.79999757	0.00000000	21.84424000
43.99999756	0.00000000	21.43824000
44.19999755	0.00000000	23.01919000
44.39999753	0.00000000	25.41215000
44.59999752	0.00000000	26.68553000
44.79999751	0.00000000	26.33489000
44.99999750	0.00000000	25.60900000
45.19999749	0.00000000	25.11073000
45.39999748	0.00000000	25.10458000
45.59999746	0.00000000	24.70472000
45.79999745	0.00000000	24.85236000
45.99999744	0.00000000	26.48253000
46.19999743	0.00000000	28.97392000
46.39999742	0.00000000	31.02239000
46.59999740	0.00000000	31.88361000
46.79999739	0.00000000	31.02239000
46.99999738	0.00000000	28.92470000
47.19999737	0.00000000	25.92274000
47.39999736	0.00000000	22.55782000
47.59999734	0.00000000	19.60507000
47.79999733	0.00000000	17.97490000
47.99999732	0.00000000	18.33169000
48.19999731	0.00000000	20.46629000
48.39999730	0.00000000	23.38214000
48.59999729	0.00000000	26.83317000
48.79999727	0.00000000	29.74901000
48.99999726	0.00000000	31.88361000
49.19999725	0.00000000	32.28962000
49.39999724	0.00000000	31.07160000
49.59999723	0.00000000	28.97392000
49.79999721	0.00000000	26.38410000
49.99999720	0.00000000	23.83120000
50.19999719	0.00000000	21.29060000
50.39999718	0.00000000	19.65428000
50.59999717	0.00000000	19.55585000
50.79999715	0.00000000	20.36786000
50.99999714	0.00000000	21.24139000
51.19999713	0.00000000	22.55782000
51.39999712	0.00000000	24.24335000
51.59999711	0.00000000	25.97195000
51.79999710	0.00000000	27.65748000
51.99999708	0.00000000	28.92470000
52.19999707	0.00000000	29.38607000
52.39999706	0.00000000	29.38607000
52.59999705	0.00000000	28.87549000
52.79999704	0.00000000	27.19611000
52.99999702	0.00000000	24.70472000
53.19999701	0.00000000	22.55782000
53.39999700	0.00000000	20.87844000
53.59999699	0.00000000	20.06643000
53.79999698	0.00000000	20.82923000
53.99999696	0.00000000	22.14567000
54.19999695	0.00000000	23.93578000
54.39999694	0.00000000	27.39296000
54.59999693	0.00000000	31.28691000
54.79999692	0.00000000	33.09547000
54.99999691	0.00000000	31.53912000
55.19999689	0.00000000	30.34572000
55.39999688	0.00000000	28.77707000
55.59999687	0.00000000	25.51058000
55.79999686	0.00000000	21.84424000
55.99999685	0.00000000	20.11565000
56.19999683	0.00000000	20.46629000
56.39999682	0.00000000	21.74582000
56.59999681	0.00000000	24.29257000
56.79999680	0.00000000	27.19611000
56.99999679	0.00000000	29.33686000
57.19999677	0.00000000	30.61023000
57.39999676	0.00000000	30.65945000
57.59999675	0.00000000	29.74901000
57.79999674	0.00000000	28.00812000
57.99999673	0.00000000	24.65551000
58.19999672	0.00000000	21.38902000
58.39999670	0.00000000	19.65428000
58.59999669	0.00000000	19.70349000
58.79999668	0.00000000	21.74582000
58.99999667	0.00000000	25.10458000
59.19999666	0.00000000	28.06963000
59.39999664	0.00000000	30.65945000
59.59999663	0.00000000	32.28962000
59.79999662	0.00000000	32.33883000
59.99999661	0.00000000	30.97318000
60.19999660	0.00000000	28.00812000
60.39999658	0.00000000	23.42520000
60.59999657	0.00000000	19.75271000
60.79999656	0.00000000	18.33169000
60.99999655	0.00000000	18.73154000
61.19999654	0.00000000	19.96186000
61.39999653	0.00000000	22.19488000
61.59999651	0.00000000	25.11073000
61.79999650	0.00000000	28.51870000
61.99999649	0.00000000	30.97318000
62.19999648	0.00000000	31.88361000
62.39999647	0.00000000	31.02239000
62.59999645	0.00000000	28.92470000
62.79999644	0.00000000	25.97195000
62.99999643	0.00000000	23.01919000
63.19999642	0.00000000	20.87844000
63.39999641	0.00000000	19.55585000
63.59999639	0.00000000	19.19291000
63.79999638	0.00000000	19.96186000
63.99999637	0.00000000	21.64124000
64.19999636	0.00000000	22.96998000
64.39999635	0.00000000	24.75394000
64.59999634	0.00000000	27.19611000
64.79999632	0.00000000	28.92470000
64.99999631	0.00000000	29.84744000
65.19999630	0.00000000	30.61023000
65.39999629	0.00000000	30.20423000
65.59999628	0.00000000	28.52485000
65.79999626	0.00000000	26.79011000
65.99999625	0.00000000	24.19414000
66.19999624	0.00000000	21.29060000
66.39999623	0.00000000	19.14370000
66.59999622	0.00000000	17.87647000
66.79999620	0.00000000	17.97490000
66.99999619	0.00000000	20.06643000
67.19999618	0.00000000	23.83120000
67.39999617	0.00000000	27.65748000
67.59999616	0.00000000	31.07160000
67.79999615	0.00000000	33.61835000
67.99999613	0.00000000	34.43652000
68.19999612	0.00000000	33.61835000
68.39999611	0.00000000	31.07160000
68.59999610	0.00000000	27.60827000
68.79999609	0.00000000	23.32677000
68.99999607	0.00000000	18.38090000
69.19999606	0.00000000	15.67421000
69.39999605	0.00000000	17.32283000
69.59999604	0.00000000	20.30020000
69.79999603	0.00000000	21.35212000
69.99999601	0.00000000	25.30143000
70.19999600	0.00000000	30.05044000
70.39999599	0.00000000	32.75098000
70.59999598	0.00000000	34.07357000
70.79999597	0.00000000	34.02436000
70.99999596	0.00000000	32.28962000
71.19999594	0.00000000	28.92470000
71.39999593	0.00000000	24.70472000
71.59999592	0.00000000	20.87844000
71.79999591	0.00000000	17.92569000
71.99999590	0.00000000	16.65231000
72.19999588	0.00000000	17.51353000
72.39999587	0.00000000	20.01722000
72.59999586	0.00000000	23.88041000
72.79999585	0.00000000	28.06963000
72.99999584	0.00000000	31.88361000
73.19999582	0.00000000	33.97514000
73.39999581	0.00000000	34.02436000
73.59999580	0.00000000	32.33883000
73.79999579	0.00000000	29.33686000
73.99999578	0.00000000	25.55979000
74.19999577	0.00000000	21.69660000
74.39999575	0.00000000	18.78076000
74.59999574	0.00000000	17.05832000
74.79999573	0.00000000	17.51353000
74.99999572	0.00000000	19.55585000
75.19999571	0.00000000	22.55782000
75.39999569	0.00000000	25.92274000
75.59999568	0.00000000	28.87549000
75.79999567	0.00000000	30.56102000
75.99999566	0.00000000	30.51181000
76.19999565	0.00000000	28.42027000
76.39999563	0.00000000	24.65551000
76.59999562	0.00000000	20.87844000
76.79999561	0.00000000	17.87647000
76.99999560	0.00000000	16.24016000
77.19999559	0.00000000	16.64616000
77.39999558	0.00000000	19.24212000
77.59999556	0.00000000	23.42520000
77.79999555	0.00000000	28.51870000
77.99999554	0.00000000	32.70177000
78.19999553	0.00000000	35.29773000
78.39999552	0.00000000	35.65453000
78.59999550	0.00000000	33.56299000
78.79999549	0.00000000	29.28765000
78.99999548	0.00000000	23.83120000
79.19999547	0.00000000	18.33169000
79.39999546	0.00000000	14.60999000
79.59999544	0.00000000	13.74262000
79.79999543	0.00000000	16.19094000
79.99999542	0.00000000	20.41708000
80.19999541	0.00000000	25.20915000
80.39999540	0.00000000	31.17003000
80.59999539	0.00000000	36.98326000
80.79999537	0.00000000	40.29896000
80.99999536	0.00000000	39.93602000
81.19999535	0.00000000	36.21432000
81.39999534	0.00000000	31.12082000
81.59999533	0.00000000	25.51058000
81.79999531	0.00000000	19.55585000
81.99999530	0.00000000	14.56078000
82.19999529	0.00000000	12.01402000
82.39999528	0.00000000	12.82603000
82.59999527	0.00000000	16.19094000
82.79999525	0.00000000	21.29060000
82.99999524	0.00000000	27.24532000
83.19999523	0.00000000	32.75098000
83.39999522	0.00000000	36.98326000
83.59999521	0.00000000	38.61343000
83.79999520	0.00000000	37.03248000
83.99999518	0.00000000	33.16314000
84.19999517	0.00000000	28.05733000
84.39999516	0.00000000	21.74582000
84.59999515	0.00000000	16.70152000
84.79999514	0.00000000	13.95177000
84.99999512	0.00000000	12.26624000
85.19999511	0.00000000	11.91560000
85.39999510	0.00000000	14.14862000
85.59999509	0.00000000	18.69463000
85.79999508	0.00000000	24.64321000
85.99999506	0.00000000	29.74901000
86.19999505	0.00000000	34.02436000
86.39999504	0.00000000	36.47268000
86.59999503	0.00000000	35.70374000
86.79999502	0.00000000	32.75098000
86.99999501	0.00000000	28.46949000
87.19999499	0.00000000	22.96998000
87.39999498	0.00000000	17.92569000
87.59999497	0.00000000	14.46235000
87.79999496	0.00000000	12.77682000
87.99999495	0.00000000	13.18282000
88.19999493	0.00000000	15.72958000
88.39999492	0.00000000	19.55585000
88.59999491	0.00000000	24.39099000
88.79999490	0.00000000	30.16117000
88.99999489	0.00000000	35.13779000
89.19999487	0.00000000	36.01747000
89.39999486	0.00000000	34.17200000
89.59999485	0.00000000	31.53297000
89.79999484	0.00000000	28.51870000
89.99999483	0.00000000	24.65551000
90.19999482	0.00000000	20.87844000
90.39999480	0.00000000	17.92569000
90.59999479	0.00000000	16.65231000
90.79999478	0.00000000	17.46432000
90.99999477	0.00000000	19.60507000
91.19999476	0.00000000	23.01919000
91.39999474	0.00000000	27.19611000
91.59999473	0.00000000	30.56102000
91.79999472	0.00000000	32.33883000
91.99999471	0.00000000	32.75098000
92.19999470	0.00000000	31.93282000
92.39999468	0.00000000	29.79823000
92.59999467	0.00000000	27.24532000
92.79999466	0.00000000	24.29257000
92.99999465	0.00000000	21.79503000
93.19999464	0.00000000	20.87844000
93.39999463	0.00000000	20.82923000
93.59999461	0.00000000	21.29060000
93.79999460	0.00000000	22.55782000
93.99999459	0.00000000	24.19414000
94.19999458	0.00000000	25.51058000
94.39999457	0.00000000	26.38410000
94.59999455	0.00000000	27.24532000
94.79999454	0.00000000	27.60827000
94.99999453	0.00000000	27.24532000
95.19999452	0.00000000	26.43332000
95.39999451	0.00000000	26.02116000
95.59999449	0.00000000	25.92274000
95.79999448	0.00000000	25.51058000
95.99999447	0.00000000	24.65551000
96.19999446	0.00000000	23.83120000
96.39999445	0.00000000	22.96998000
96.59999444	0.00000000	22.55782000
96.79999442	0.00000000	22.55782000
96.99999441	0.00000000	23.01919000
97.19999440	0.00000000	24.19414000
97.39999439	0.00000000	25.05536000
97.59999438	0.00000000	25.11073000
97.79999436	0.00000000	25.60900000
97.99999435	0.00000000	26.38410000
98.19999434	0.00000000	27.19611000
98.39999433	0.00000000	27.09768000
98.59999432	0.00000000	25.55979000
98.79999430	0.00000000	23.83735000
98.99999429	0.00000000	23.01304000
99.19999428	0.00000000	22.10876000
99.39999427	0.00000000	22.19488000
99.59999426	0.00000000	22.87155000
99.79999425	0.00000000	23.32062000
99.99999423	0.00000000	23.01919000
100.19999422	0.00000000	23.52362000
100.39999421	0.00000000	25.51058000
100.59999420	0.00000000	27.19611000
100.79999419	0.00000000	28.06963000
100.99999417	0.00000000	28.46949000
101.19999416	0.00000000	27.60827000
101.39999415	0.00000000	25.97195000
101.59999414	0.00000000	24.29257000
101.79999413	0.00000000	23.01919000
101.99999411	0.00000000	22.55782000
102.19999410	0.00000000	22.50861000
102.39999409	0.00000000	22.55782000
102.59999408	0.00000000	23.01919000
102.79999407	0.00000000	24.29257000
102.99999406	0.00000000	25.92274000
103.19999404	0.00000000	27.19611000
103.39999403	0.00000000	27.65748000
103.59999402	0.00000000	27.65748000
103.79999401	0.00000000	27.19611000
103.99999400	0.00000000	25.97195000
104.19999398	0.00000000	24.75394000
104.39999397	0.00000000	24.29257000
104.59999396	0.00000000	24.19414000
104.79999395	0.00000000	23.83120000
104.99999394	0.00000000	23.43135000
105.19999392	0.00000000	23.92962000
105.39999391	0.00000000	25.11073000
105.59999390	0.00000000	26.79011000
105.79999389	0.00000000	27.60827000
105.99999388	0.00000000	27.65748000
106.19999387	0.00000000	27.24532000
106.39999385	0.00000000	26.38410000
106.59999384	0.00000000	25.55979000
106.79999383	0.00000000	24.65551000
106.99999382	0.00000000	23.83120000
107.19999381	0.00000000	22.96998000
107.39999379	0.00000000	22.55782000
107.59999378	0.00000000	22.55782000
107.79999377	0.00000000	22.96998000
107.99999376	0.00000000	23.83120000
108.19999375	0.00000000	24.70472000
108.39999374	0.00000000	25.97195000
108.59999372	0.00000000	27.19611000
108.79999371	0.00000000	27.60827000
108.99999370	0.00000000	27.19611000
