Time	Channel A	Channel B
(us)	(V)	(mV)

-4.49999956	0.00000000	4.27534400
-4.29999957	0.00000000	3.87549200
-4.09999958	0.00000000	3.51254900
-3.89999959	0.00000000	3.46333600
-3.69999960	0.00000000	3.46333600
-3.49999962	0.00000000	3.51254900
-3.29999963	0.00000000	3.87549200
-3.09999964	0.00000000	4.27534400
-2.89999965	0.00000000	3.87549200
-2.69999966	0.00000000	3.51254900
-2.49999968	0.00000000	3.46333600
-2.29999969	0.00000000	3.51254900
-2.09999970	0.00000000	3.92470400
-1.89999971	0.00000000	4.68134800
-1.69999972	0.00000000	4.68134800
-1.49999973	0.00000000	3.92470400
-1.29999975	0.00000000	3.51254900
-1.09999976	0.00000000	3.46333600
-0.89999977	0.00000000	3.46333600
-0.69999978	0.00000000	3.51254900
-0.49999979	0.00000000	3.87549200
-0.29999981	0.35125490	4.27534400
-0.09999982	0.70250980	3.87549200
0.10000017	1.05376500	3.51254900
0.30000016	1.05376500	3.46333600
0.50000015	0.70250980	3.46333600
0.70000013	0.00000000	3.46333600
0.90000012	-0.87844490	3.51254900
1.10000011	-1.93282500	3.87549200
1.30000010	-2.63533500	4.32455700
1.50000009	-2.81127000	4.33070900
1.70000008	-2.10814500	4.77977300
1.90000006	-0.70250980	5.14271600
2.10000005	1.40563500	5.19192900
2.30000004	3.33846000	5.09350300
2.50000003	4.91941500	4.32455700
2.70000002	5.27128500	3.05733300
2.90000000	4.21690500	2.63902500
3.09999999	1.75689000	2.18996000
3.29999998	-1.40563500	2.28838600
3.49999997	-4.91941500	3.46333600
3.69999996	-7.20410900	4.73056000
3.89999994	-8.08255400	5.60408400
4.09999993	-6.67691900	6.51451700
4.29999992	-3.51377900	7.28961600
4.49999991	0.70250980	7.73868000
4.69999990	4.91941500	7.19119100
4.89999989	8.25849000	5.59793300
5.09999987	9.48818900	3.05733300
5.29999986	8.25849000	1.46407500
5.49999985	4.91941500	0.91658460
5.69999984	0.35125490	1.31643700
5.89999983	-4.21690500	1.72859200
6.09999981	-7.73129900	2.23917300
6.29999980	-9.48818900	3.46333600
6.49999979	-8.60974400	4.73056000
6.69999978	-5.79847400	5.55487200
6.89999977	-1.58095500	6.00393600
7.09999975	2.63533500	5.55487200
7.29999974	5.97379400	4.77977300
7.49999973	7.55536400	3.87549200
7.69999972	7.20410900	3.10039400
7.89999971	5.09534900	2.60211600
8.09999970	1.93282500	2.63902500
8.29999968	-1.40563500	2.60211600
8.49999967	-3.86565000	3.05118100
8.69999966	-5.09534900	3.46333600
8.89999965	-4.91941500	3.87549200
9.09999964	-3.68971500	4.32455700
9.29999962	-1.75689000	4.33070900
9.49999961	0.17531990	4.73056000
9.69999960	1.75689000	4.73056000
9.89999959	2.45940000	4.33070900
10.09999958	2.45940000	4.32455700
10.29999956	1.75689000	3.87549200
10.49999955	0.87844490	3.51254900
10.69999954	0.00000000	3.46333600
10.89999953	-0.70250980	3.46333600
11.09999952	-0.87844490	3.51254900
11.29999951	-0.87844490	3.87549200
11.49999949	-0.70250980	4.32455700
11.69999948	-0.52657480	4.33070900
11.89999947	-0.17531990	4.73056000
12.09999946	0.00000000	4.73056000
12.29999945	-0.17531990	4.33070900
12.49999943	0.00000000	4.32455700
12.69999942	-0.17531990	3.87549200
12.89999941	-0.17531990	3.51254900
13.09999940	-0.17531990	3.46333600
13.29999939	0.00000000	3.46333600
13.49999937	-0.17531990	3.46333600
13.69999936	0.00000000	3.46333600
13.89999935	0.00000000	3.51254900
14.09999934	0.00000000	3.92470400
14.29999933	0.00000000	4.68134800
14.49999932	0.00000000	4.68134800
14.69999930	0.00000000	3.92470400
14.89999929	0.00000000	3.51254900
15.09999928	0.00000000	3.46333600
15.29999927	0.00000000	3.46333600
15.49999926	0.00000000	3.46333600
15.69999924	0.00000000	3.51254900
15.89999923	0.00000000	3.87549200
16.09999922	0.00000000	4.32455700
16.29999921	0.00000000	4.28149600
16.49999920	0.00000000	4.37376900
16.69999919	0.00000000	4.28149600
16.89999917	0.00000000	4.32455700
17.09999916	0.00000000	3.87549200
17.29999915	0.00000000	3.51254900
17.49999914	0.00000000	3.46333600
17.69999913	0.00000000	3.51254900
17.89999911	0.00000000	3.87549200
18.09999910	0.00000000	4.27534400
18.29999909	0.00000000	3.92470400
18.49999908	0.00000000	3.92470400
18.69999907	0.00000000	4.27534400
18.89999905	0.00000000	3.87549200
19.09999904	0.00000000	3.51254900
19.29999903	0.00000000	3.46333600
19.49999902	0.00000000	3.46333600
19.69999901	0.00000000	3.46333600
19.89999900	0.00000000	3.46333600
20.09999898	0.00000000	3.51254900
20.29999897	0.00000000	3.87549200
20.49999896	0.00000000	4.27534400
20.69999895	0.00000000	3.92470400
20.89999894	0.00000000	3.92470400
21.09999892	0.00000000	4.27534400
21.29999891	0.00000000	3.87549200
21.49999890	0.00000000	3.51254900
21.69999889	0.00000000	3.51254900
21.89999888	0.00000000	3.87549200
22.09999886	0.00000000	4.32455700
22.29999885	0.00000000	4.28149600
22.49999884	0.00000000	4.32455700
22.69999883	0.00000000	3.92470400
22.89999882	0.00000000	3.92470400
23.09999881	0.00000000	4.27534400
23.29999879	0.00000000	3.82627900
23.49999878	0.00000000	3.05118100
23.69999877	0.00000000	2.23917300
23.89999876	0.00000000	2.23917300
24.09999875	0.00000000	3.05118100
24.29999873	0.00000000	3.92470400
24.49999872	0.00000000	5.19192900
24.69999871	0.00000000	6.46530500
24.89999870	0.00000000	7.33882900
25.09999869	0.00000000	8.14468500
25.29999867	0.00000000	8.04626000
25.49999866	0.00000000	6.41609200
25.69999865	0.00000000	3.87549200
25.89999864	0.00000000	1.27337600
26.09999863	0.00000000	-1.67938000
26.29999862	0.00000000	-4.17691900
26.49999860	0.00000000	-4.94586600
26.69999859	0.00000000	-3.66633800
26.89999858	0.00000000	0.19685040
27.09999857	0.00000000	5.65329700
27.29999856	0.00000000	11.60802000
27.49999854	0.00000000	16.65846000
27.69999853	0.00000000	19.61737000
27.89999852	0.00000000	19.51895000
28.09999851	0.00000000	15.64345000
28.29999850	0.00000000	8.00319800
28.49999848	0.00000000	-1.67938000
28.69999847	0.00000000	-11.05438000
28.89999846	0.00000000	-18.19021000
29.09999845	0.00000000	-21.49975000
29.29999844	0.00000000	-18.81152000
29.49999843	0.00000000	-9.93479300
29.69999841	0.00000000	3.61097400
29.89999840	0.00000000	18.43627000
30.09999839	0.00000000	31.53912000
30.29999838	0.00000000	39.84375000
30.49999837	0.00000000	39.79454000
30.69999835	0.00000000	30.88090000
30.89999834	0.00000000	15.23130000
31.09999833	0.00000000	-4.27534400
31.29999832	0.00000000	-22.83464000
31.49999831	0.00000000	-36.38041000
31.69999829	0.00000000	-41.33243000
31.89999828	0.00000000	-35.82062000
32.09999827	0.00000000	-20.54011000
32.29999826	0.00000000	0.96579720
32.49999825	0.00000000	23.88656000
32.69999824	0.00000000	42.90723000
32.89999822	0.00000000	54.26304000
33.09999821	0.00000000	54.21383000
33.29999820	0.00000000	42.39665000
33.49999819	0.00000000	22.05955000
33.69999818	0.00000000	-2.90354300
33.89999816	0.00000000	-26.55019000
34.09999815	0.00000000	-43.01181000
34.29999814	0.00000000	-48.56053000
34.49999813	0.00000000	-41.83686000
34.69999812	0.00000000	-25.32603000
34.89999810	0.00000000	-2.39911400
35.09999809	0.00000000	22.47170000
35.29999808	0.00000000	42.80265000
35.49999807	0.00000000	53.81397000
35.69999806	0.00000000	53.80167000
35.89999805	0.00000000	41.93528000
36.09999803	0.00000000	21.34596000
36.29999802	0.00000000	-2.34990100
36.49999801	0.00000000	-23.49286000
36.69999800	0.00000000	-37.45694000
36.89999799	0.00000000	-40.92027000
37.09999797	0.00000000	-33.73523000
37.29999796	0.00000000	-18.13484000
37.49999795	0.00000000	2.54675200
37.69999794	0.00000000	22.32406000
37.89999793	0.00000000	36.33120000
38.09999791	0.00000000	41.43085000
38.29999790	0.00000000	36.84178000
38.49999789	0.00000000	24.29872000
38.69999788	0.00000000	7.84325700
38.89999787	0.00000000	-7.80019600
39.09999786	0.00000000	-19.66658000
39.29999784	0.00000000	-24.71703000
39.49999783	0.00000000	-21.86270000
39.69999782	0.00000000	-12.64149000
39.89999781	0.00000000	0.00000000
40.09999780	0.00000000	12.64149000
40.29999778	0.00000000	21.91191000
40.49999777	0.00000000	25.32603000
40.69999776	0.00000000	22.47170000
40.89999775	0.00000000	14.97293000
41.09999774	0.00000000	5.70251000
41.29999772	0.00000000	-2.75590500
41.49999771	0.00000000	-8.66756800
41.69999770	0.00000000	-10.34695000
41.89999769	0.00000000	-7.54183000
42.09999768	0.00000000	-2.04232300
42.29999767	0.00000000	4.23228400
42.49999765	0.00000000	10.13164000
42.69999764	0.00000000	13.09670000
42.89999763	0.00000000	13.19513000
43.09999762	0.00000000	11.10359000
43.29999761	0.00000000	7.33882900
43.49999759	0.00000000	3.61097400
43.69999758	0.00000000	1.01501000
43.89999757	0.00000000	0.14763780
44.09999756	0.00000000	0.55979330
44.29999755	0.00000000	2.18996000
44.49999753	0.00000000	4.17691900
44.69999752	0.00000000	4.63213500
44.89999751	0.00000000	3.87549200
45.09999750	0.00000000	3.05118100
45.29999749	0.00000000	2.23917300
45.49999748	0.00000000	2.23917300
45.69999746	0.00000000	3.10039400
45.89999745	0.00000000	4.37992100
46.09999744	0.00000000	6.51451700
46.29999743	0.00000000	8.55684000
46.49999742	0.00000000	9.83021600
46.69999740	0.00000000	9.83021600
46.89999739	0.00000000	8.50762700
47.09999738	0.00000000	5.95472400
47.29999737	0.00000000	2.18996000
47.49999736	0.00000000	-1.12573800
47.69999734	0.00000000	-2.85433100
47.89999733	0.00000000	-2.90354300
48.09999732	0.00000000	-1.58095500
48.29999731	0.00000000	0.96579720
48.49999730	0.00000000	4.73056000
48.69999729	0.00000000	8.09547100
48.89999727	0.00000000	10.29158000
49.09999726	0.00000000	11.50960000
49.29999725	0.00000000	11.10359000
49.49999724	0.00000000	9.01820900
49.69999723	0.00000000	6.51451700
49.89999721	0.00000000	3.87549200
50.09999720	0.00000000	1.37180100
50.29999719	0.00000000	-0.76279520
50.49999718	0.00000000	-1.58095500
50.69999717	0.00000000	-1.26722400
50.89999715	0.00000000	-0.36294290
51.09999714	0.00000000	0.91658460
51.29999713	0.00000000	3.05118100
51.49999712	0.00000000	5.09350300
51.69999711	0.00000000	6.51451700
51.89999710	0.00000000	7.74483200
52.09999708	0.00000000	9.01205700
52.29999707	0.00000000	8.96899500
52.49999706	0.00000000	8.19389700
52.69999705	0.00000000	6.82824800
52.89999704	0.00000000	4.73056000
53.09999702	0.00000000	2.18996000
53.29999701	0.00000000	0.09842519
53.49999700	-0.17531990	-1.21801200
53.69999699	0.00000000	-1.58095500
53.89999698	0.00000000	-0.71358260
54.09999696	0.00000000	1.77780500
54.29999695	0.00000000	4.68134800
54.49999694	0.00000000	6.87746000
54.69999693	0.00000000	8.60605200
54.89999692	0.00000000	9.78100300
55.09999691	0.00000000	9.37500000
55.29999689	0.00000000	7.28961600
55.49999688	0.00000000	4.73056000
55.69999687	0.00000000	1.77780500
55.89999686	0.00000000	-0.66437010
56.09999685	0.00000000	-1.16879900
56.29999683	0.00000000	-0.36294290
56.49999682	0.00000000	0.96579720
56.69999681	0.00000000	3.51254900
56.89999680	0.00000000	6.41609200
57.09999679	0.00000000	8.50762700
57.29999677	0.00000000	9.31963500
57.49999676	0.00000000	8.09547100
57.69999675	0.00000000	5.60408400
57.89999674	0.00000000	3.05118100
58.09999673	0.00000000	0.51058070
58.29999672	0.00000000	-1.16879900
58.49999670	0.00000000	-1.53174200
58.69999669	0.00000000	-0.35063970
58.89999668	0.00000000	2.23302100
59.09999667	-0.17531990	4.74286400
59.29999666	0.00000000	7.78789300
59.49999664	0.00000000	10.19316000
59.69999663	0.00000000	11.05438000
59.89999662	0.00000000	9.78100300
60.09999661	0.00000000	6.82824800
60.29999660	0.00000000	3.05118100
60.49999658	0.00000000	-0.71358260
60.69999657	0.00000000	-2.85433100
60.89999656	0.00000000	-3.31569900
61.09999655	0.00000000	-2.44832700
61.29999654	0.00000000	0.09842519
61.49999653	0.00000000	3.46333600
61.69999651	0.00000000	6.87746000
61.89999650	0.00000000	9.83021600
62.09999649	0.00000000	11.46038000
62.29999648	0.00000000	11.10359000
62.49999647	0.00000000	9.01820900
62.69999645	0.00000000	6.46530500
62.89999644	0.00000000	3.51254900
63.09999643	0.00000000	0.96579720
63.29999642	0.00000000	-0.36294290
63.49999641	0.00000000	-1.21801200
63.69999639	0.00000000	-1.16879900
63.89999638	0.00000000	0.04921259
64.09999637	0.00000000	1.77780500
64.29999636	0.00000000	3.87549200
64.49999635	0.00000000	6.01008800
64.69999634	0.00000000	7.33882900
64.89999632	0.00000000	8.65526600
65.09999631	0.00000000	9.83021600
65.29999630	0.00000000	9.83021600
65.49999629	0.00000000	8.55684000
65.69999628	0.00000000	6.46530500
65.89999626	0.00000000	3.87549200
66.09999625	0.00000000	1.32258800
66.29999624	0.00000000	-1.22416300
66.49999623	0.00000000	-2.85433100
66.69999622	0.00000000	-2.90354300
66.89999620	0.00000000	-1.58095500
67.09999619	0.00000000	1.01501000
67.29999618	0.00000000	5.14271600
67.49999617	0.00000000	8.96284400
67.69999616	0.00000000	11.15896000
67.89999615	0.00000000	12.83834000
68.09999613	0.00000000	12.73991000
68.29999612	0.00000000	10.29158000
68.49999611	0.00000000	6.87746000
68.69999610	0.00000000	3.00196800
68.89999609	0.00000000	-1.16879900
69.09999607	0.00000000	-4.12770700
69.29999606	0.00000000	-4.99507900
69.49999605	0.00000000	-4.17691900
69.69999604	0.00000000	-1.58095500
69.89999603	0.00000000	2.18996000
70.09999601	0.00000000	6.46530500
70.29999600	0.00000000	10.24237000
70.49999599	0.00000000	12.78912000
70.69999598	0.00000000	13.19513000
70.89999597	0.00000000	11.55881000
71.09999596	0.00000000	8.55684000
71.29999594	0.00000000	4.73056000
71.49999593	0.00000000	0.55979330
71.69999592	0.00000000	-2.34990100
71.89999591	0.00000000	-2.90354300
72.09999590	0.00000000	-2.09153500
72.29999588	0.00000000	-0.71358260
72.49999587	0.00000000	2.28838600
72.69999586	0.00000000	6.41609200
72.89999585	0.00000000	9.78100300
73.09999584	0.00000000	11.50960000
73.29999582	0.00000000	11.55881000
73.49999581	0.00000000	10.29158000
73.69999580	0.00000000	8.14468500
73.89999579	0.00000000	5.14271600
74.09999578	0.00000000	1.72859200
74.29999577	-0.17531990	-1.58095500
74.49999575	0.00000000	-3.66633800
74.69999574	0.00000000	-3.26648600
74.89999573	0.00000000	-1.22416300
75.09999572	0.00000000	1.77780500
75.29999571	0.00000000	5.14271600
75.49999569	0.00000000	8.14468500
75.69999568	0.00000000	10.24237000
75.89999567	0.00000000	11.00517000
76.09999566	0.00000000	9.31963500
76.29999565	0.00000000	5.60408400
76.49999563	0.00000000	1.77780500
76.69999562	0.00000000	-1.63016700
76.89999561	0.00000000	-4.12770700
77.09999560	0.00000000	-4.53371000
77.29999559	0.00000000	-2.80511800
77.49999558	0.00000000	0.96579720
77.69999556	0.00000000	6.01008800
77.89999555	0.00000000	10.24237000
78.09999554	0.00000000	13.24434000
78.29999553	0.00000000	14.46850000
78.49999552	0.00000000	13.14591000
78.69999550	0.00000000	9.37500000
78.89999549	0.00000000	3.87549200
79.09999548	0.00000000	-1.58095500
79.29999547	0.00000000	-5.85629900
79.49999546	0.00000000	-7.89862200
79.69999544	0.00000000	-7.08046200
79.89999543	0.00000000	-3.26648600
80.09999542	0.00000000	2.18996000
80.29999541	0.00000000	8.19389700
80.49999540	0.00000000	13.65650000
80.69999539	0.00000000	17.42126000
80.89999537	0.00000000	17.88263000
81.09999536	0.00000000	15.38509000
81.29999535	0.00000000	11.10359000
81.49999534	0.00000000	5.14271600
81.69999533	0.00000000	-1.17495100
81.89999531	0.00000000	-6.26845500
82.09999530	0.00000000	-9.22736200
82.29999529	0.00000000	-9.22736200
82.49999528	0.00000000	-6.31766700
82.69999527	0.00000000	-1.63016700
82.89999525	0.00000000	3.92470400
83.09999524	0.00000000	9.83021600
83.29999523	0.00000000	14.41929000
83.49999522	0.00000000	16.24631000
83.69999521	0.00000000	15.84646000
83.89999520	0.00000000	14.10556000
84.09999518	0.00000000	10.24237000
84.29999517	0.00000000	5.19192900
84.49999516	0.00000000	0.04921259
84.69999515	0.00000000	-4.53371000
84.89999514	0.00000000	-7.12967500
85.09999512	0.00000000	-7.19119100
85.29999511	0.00000000	-5.91166300
85.49999510	0.00000000	-2.80511800
85.69999509	0.00000000	2.23917300
85.89999508	0.00000000	8.14468500
86.09999506	0.00000000	13.19513000
86.29999505	0.00000000	16.20325000
86.49999504	0.00000000	16.65846000
86.69999503	0.00000000	14.92372000
86.89999502	0.00000000	11.10359000
87.09999501	0.00000000	5.60408400
87.29999499	0.00000000	0.09842519
87.49999498	0.00000000	-4.58292300
87.69999497	0.00000000	-7.49261800
87.89999496	0.00000000	-7.59104300
88.09999495	0.00000000	-5.45644600
88.29999493	0.00000000	-2.08538400
88.49999492	0.00000000	2.64517700
88.69999491	0.00000000	7.28961600
88.89999490	0.00000000	11.55881000
89.09999489	0.00000000	14.46850000
89.29999487	0.00000000	14.92372000
89.49999486	0.00000000	13.24434000
89.69999485	0.00000000	9.78100300
89.89999484	0.00000000	4.78592500
90.09999483	0.00000000	-0.25221450
90.29999482	0.00000000	-3.26648600
90.49999480	0.00000000	-4.63213500
90.69999479	0.00000000	-4.53371000
90.89999478	0.00000000	-2.44832700
91.09999477	0.00000000	1.31643700
91.29999476	0.00000000	5.09350300
91.49999474	0.00000000	8.14468500
91.69999473	0.00000000	10.24237000
91.89999472	0.00000000	11.10359000
92.09999471	0.00000000	10.29158000
92.29999470	0.00000000	8.60605200
92.49999468	0.00000000	6.46530500
92.69999467	0.00000000	3.92470400
92.89999466	0.00000000	1.82701800
93.09999465	0.00000000	0.51058070
93.29999464	0.00000000	0.09842519
93.49999463	0.00000000	0.51058070
93.69999461	0.00000000	1.72859200
93.89999460	0.00000000	3.00196800
94.09999459	0.00000000	3.87549200
94.29999458	0.00000000	4.73056000
94.49999457	0.00000000	5.19192900
94.69999455	0.00000000	5.60408400
94.89999454	0.00000000	6.00393600
95.09999453	0.00000000	5.60408400
95.29999452	0.00000000	5.24114100
95.49999451	0.00000000	5.14271600
95.69999449	0.00000000	4.73056000
95.89999448	0.00000000	3.92470400
96.09999447	0.00000000	3.51254900
96.29999446	0.00000000	3.41412400
96.49999445	0.00000000	3.05118100
96.69999444	0.00000000	2.65132900
96.89999442	0.00000000	3.05118100
97.09999441	0.00000000	3.46333600
97.29999440	0.00000000	3.92470400
97.49999439	0.00000000	4.77977300
97.69999438	0.00000000	5.55487200
97.89999436	0.00000000	6.05314900
98.09999435	0.00000000	6.06545300
98.29999434	0.00000000	6.46530500
98.49999433	0.00000000	6.41609200
98.69999432	0.00000000	5.55487200
98.89999430	0.00000000	4.32455700
99.09999429	0.00000000	2.69439000
99.29999428	0.00000000	2.23917300
99.49999427	0.00000000	2.58981300
99.69999426	0.00000000	2.60211600
99.89999425	0.00000000	3.10039400
100.09999423	0.00000000	3.92470400
100.29999422	0.00000000	5.19192900
100.49999421	0.00000000	6.41609200
100.69999420	0.00000000	6.82824800
100.89999419	0.00000000	6.46530500
101.09999417	0.00000000	5.65329700
101.29999416	0.00000000	5.19192900
101.49999415	0.00000000	4.68134800
101.69999414	0.00000000	3.46333600
101.89999413	0.00000000	2.23917300
102.09999411	0.00000000	1.77780500
102.29999410	0.00000000	1.77780500
102.49999409	0.00000000	2.23917300
102.69999408	0.00000000	3.46333600
102.89999407	0.00000000	4.73056000
103.09999406	0.00000000	5.60408400
103.29999404	0.00000000	6.46530500
103.49999403	0.00000000	6.82824800
103.69999402	0.00000000	6.46530500
103.89999401	0.00000000	5.60408400
104.09999400	0.00000000	4.77977300
104.29999398	0.00000000	3.87549200
104.49999397	0.00000000	3.05118100
104.69999396	0.00000000	2.18996000
104.89999395	0.00000000	1.87623000
105.09999394	0.00000000	2.64517700
105.29999392	0.00000000	4.27534400
105.49999391	0.00000000	5.14271600
105.69999390	0.00000000	5.65329700
105.89999389	0.00000000	6.46530500
106.09999388	0.00000000	6.82824800
106.29999387	0.00000000	6.46530500
106.49999385	0.00000000	5.65329700
106.69999384	0.00000000	5.14271600
106.89999383	0.00000000	4.27534400
107.09999382	0.00000000	2.64517700
107.29999381	0.00000000	1.82701800
107.49999379	0.00000000	1.72859200
107.69999378	0.00000000	1.77780500
107.89999377	0.00000000	2.23917300
108.09999376	0.00000000	3.51254900
108.29999375	0.00000000	5.19192900
108.49999374	0.00000000	6.82824800
108.69999372	0.00000000	7.68946800
108.89999371	0.00000000	7.28961600
109.09999370	0.00000000	6.46530500
109.29999369	0.00000000	5.14271600
109.49999368	0.00000000	3.46333600
109.69999366	0.00000000	1.77780500
109.89999365	0.00000000	0.55979330
110.09999364	0.00000000	0.51058070
110.29999363	0.00000000	1.36565000
110.49999362	0.00000000	2.64517700
110.69999360	0.00000000	4.77977300
110.89999359	0.00000000	6.82824800
111.09999358	0.00000000	8.14468500
