Time	Channel A	Channel B
(us)	(V)	(mV)

-4.49999956	0.00000000	-5.19192900
-4.29999957	0.00000000	-5.24114100
-4.09999958	0.00000000	-5.65329700
-3.89999959	0.00000000	-6.41609200
-3.69999960	0.00000000	-6.41609200
-3.49999962	0.00000000	-5.65329700
-3.29999963	0.00000000	-5.24114100
-3.09999964	0.00000000	-5.19192900
-2.89999965	0.00000000	-5.19192900
-2.69999966	0.00000000	-5.19192900
-2.49999968	0.00000000	-5.24114100
-2.29999969	0.00000000	-5.65329700
-2.09999970	0.00000000	-6.41609200
-1.89999971	0.00000000	-6.41609200
-1.69999972	0.00000000	-5.70251000
-1.49999973	0.00000000	-5.65329700
-1.29999975	0.00000000	-6.05314900
-1.09999976	0.00000000	-6.01624000
-0.89999977	0.00000000	-6.05314900
-0.69999978	0.00000000	-5.60408400
-0.49999979	0.00000000	-5.24114100
-0.29999981	0.35125490	-5.19192900
-0.09999982	0.70250980	-5.24114100
0.10000017	1.05376500	-5.65329700
0.30000016	1.05376500	-6.41609200
0.50000015	0.70250980	-6.46530500
0.70000013	0.00000000	-6.11466500
0.90000012	-0.87844490	-6.46530500
1.10000011	-1.93282500	-6.41609200
1.30000010	-2.63533500	-5.65329700
1.50000009	-2.81127000	-5.24114100
1.70000008	-2.10814500	-5.19192900
1.90000006	-0.70250980	-5.19192900
2.10000005	1.22970000	-5.19192900
2.30000004	3.33846000	-5.24114100
2.50000003	4.91941500	-5.65329700
2.70000002	5.27128500	-6.51451700
2.90000000	4.21690500	-7.28961600
3.09999999	1.93282500	-7.73868000
3.29999998	-1.40563500	-7.33882900
3.49999997	-4.74409400	-6.92667200
3.69999996	-7.20410900	-6.46530500
3.89999994	-8.08255400	-5.60408400
4.09999993	-6.67691900	-4.77977300
4.29999992	-3.68971500	-3.97391700
4.49999991	0.70250980	-3.97391700
4.69999990	5.09534900	-4.77977300
4.89999989	8.25849000	-5.60408400
5.09999987	9.48818900	-6.51451700
5.29999986	8.25849000	-7.28961600
5.49999985	4.91941500	-7.73868000
5.69999984	0.35125490	-7.33882900
5.89999983	-4.21690500	-6.92667200
6.09999981	-7.90661900	-6.46530500
6.29999980	-9.48818900	-5.60408400
6.49999979	-8.60974400	-4.77977300
6.69999978	-5.79847400	-3.97391700
6.89999977	-1.58095500	-3.97391700
7.09999975	2.63533500	-4.73056000
7.29999974	5.97379400	-5.19192900
7.49999973	7.55536400	-5.60408400
7.69999972	7.20410900	-6.05314900
7.89999971	5.09534900	-6.06545300
8.09999970	1.93282500	-6.51451700
8.29999968	-1.22970000	-6.87746000
8.49999967	-3.86565000	-6.87746000
8.69999966	-5.09534900	-6.46530500
8.89999965	-4.91941500	-5.65329700
9.09999964	-3.68971500	-5.24114100
9.29999962	-1.75689000	-5.19192900
9.49999961	0.17531990	-5.24114100
9.69999960	1.75689000	-5.60408400
9.89999959	2.45940000	-6.05314900
10.09999958	2.45940000	-6.06545300
10.29999956	1.75689000	-6.51451700
10.49999955	0.87844490	-6.82824800
10.69999954	0.00000000	-6.46530500
10.89999953	-0.52657480	-5.65329700
11.09999952	-0.87844490	-5.24114100
11.29999951	-0.87844490	-5.19192900
11.49999949	-0.70250980	-5.24114100
11.69999948	-0.35125490	-5.60408400
11.89999947	-0.17531990	-6.00393600
12.09999946	0.00000000	-5.60408400
12.29999945	-0.17531990	-5.24114100
12.49999943	0.00000000	-5.24114100
12.69999942	-0.17531990	-5.65329700
12.89999941	-0.17531990	-6.41609200
13.09999940	-0.17531990	-6.46530500
13.29999939	0.00000000	-6.11466500
13.49999937	0.00000000	-6.51451700
13.69999936	0.00000000	-6.87746000
13.89999935	0.00000000	-6.87746000
14.09999934	0.00000000	-6.51451700
14.29999933	0.00000000	-6.11466500
14.49999932	0.00000000	-6.51451700
14.69999930	0.00000000	-6.87746000
14.89999929	0.00000000	-6.87746000
15.09999928	0.00000000	-6.46530500
15.29999927	0.00000000	-5.65329700
15.49999926	0.00000000	-5.29035400
15.69999924	0.00000000	-5.60408400
15.89999923	0.00000000	-6.05314900
16.09999922	0.00000000	-6.06545300
16.29999921	0.00000000	-6.51451700
16.49999920	0.00000000	-6.87746000
16.69999919	0.00000000	-6.87746000
16.89999917	0.00000000	-6.46530500
17.09999916	0.00000000	-5.70251000
17.29999915	0.00000000	-5.65329700
17.49999914	0.00000000	-6.05314900
17.69999913	0.00000000	-6.06545300
17.89999911	0.00000000	-6.51451700
18.09999910	0.00000000	-6.82824800
18.29999909	0.00000000	-6.51451700
18.49999908	0.00000000	-6.06545300
18.69999907	0.00000000	-6.10236200
18.89999905	0.00000000	-6.01624000
19.09999904	0.00000000	-6.10236200
19.29999903	0.00000000	-6.06545300
19.49999902	0.00000000	-6.51451700
19.69999901	0.00000000	-6.82824800
19.89999900	0.00000000	-6.41609200
20.09999898	0.00000000	-5.29035400
20.29999897	0.00000000	-4.89050100
20.49999896	0.00000000	-6.01008800
20.69999895	0.00000000	-6.36687900
20.89999894	0.00000000	-5.65329700
21.09999892	0.00000000	-5.24114100
21.29999891	0.00000000	-5.24114100
21.49999890	0.00000000	-5.65329700
21.69999889	0.00000000	-6.41609200
21.89999888	0.00000000	-6.46530500
22.09999886	0.00000000	-6.11466500
22.29999885	0.00000000	-6.51451700
22.49999884	0.00000000	-6.82824800
22.69999883	0.00000000	-6.51451700
22.89999882	0.00000000	-6.11466500
23.09999881	0.00000000	-6.51451700
23.29999879	0.00000000	-6.87746000
23.49999878	0.00000000	-6.92667200
23.69999877	0.00000000	-6.92667200
23.89999876	0.00000000	-6.92667200
24.09999875	0.00000000	-6.87746000
24.29999873	0.00000000	-6.41609200
24.49999872	0.00000000	-5.19192900
24.69999871	0.00000000	-3.92470400
24.89999870	0.00000000	-3.05118100
25.09999869	0.00000000	-2.23917300
25.29999867	0.00000000	-2.28838600
25.49999866	0.00000000	-3.56176100
25.69999865	0.00000000	-5.70251000
25.89999864	0.00000000	-8.65526600
26.09999863	0.00000000	-11.60802000
26.29999862	0.00000000	-13.70571000
26.49999860	0.00000000	-14.51772000
26.69999859	0.00000000	-13.19513000
26.89999858	0.00000000	-9.78100300
27.09999857	0.00000000	-4.68750000
27.29999856	0.00000000	1.22416300
27.49999854	0.00000000	6.26845500
27.69999853	0.00000000	9.22736200
27.89999852	0.00000000	9.12893600
28.09999851	0.00000000	5.30265700
28.29999850	0.00000000	-1.97465500
28.49999848	0.00000000	-11.30659000
28.69999847	0.00000000	-21.44439000
28.89999846	0.00000000	-29.39837000
29.09999845	0.00000000	-32.71407000
29.29999844	0.00000000	-30.05659000
29.49999843	0.00000000	-20.78617000
29.69999841	0.00000000	-7.19119100
29.89999840	0.00000000	7.64640700
30.09999839	0.00000000	21.54897000
30.29999838	0.00000000	29.81053000
30.49999837	0.00000000	29.45374000
30.69999835	0.00000000	20.54011000
30.89999834	0.00000000	5.25344500
31.09999833	0.00000000	-13.85334000
31.29999832	0.00000000	-32.81250000
31.49999831	0.00000000	-46.72121000
31.69999829	0.00000000	-51.77165000
31.89999828	0.00000000	-46.62278000
32.09999827	0.00000000	-31.79133000
32.29999826	0.00000000	-10.24237000
32.49999825	0.00000000	12.64149000
32.69999824	0.00000000	32.05585000
32.89999822	0.00000000	43.41166000
33.09999821	0.00000000	43.01181000
33.29999820	0.00000000	31.59449000
33.49999819	0.00000000	11.66954000
33.69999818	0.00000000	-12.88755000
33.89999816	0.00000000	-36.07898000
34.09999815	0.00000000	-52.63287000
34.29999814	0.00000000	-58.50147000
34.49999813	0.00000000	-52.58366000
34.69999812	0.00000000	-35.66683000
34.89999810	0.00000000	-12.02018000
35.09999809	0.00000000	12.54306000
35.29999808	0.00000000	32.81865000
35.49999807	0.00000000	43.82382000
35.69999806	0.00000000	43.01181000
35.89999805	0.00000000	31.18848000
36.09999803	0.00000000	10.90674000
36.29999802	0.00000000	-12.73991000
36.49999801	0.00000000	-33.88287000
36.69999800	0.00000000	-47.84694000
36.89999799	0.00000000	-51.26107000
37.09999797	0.00000000	-43.76845000
37.29999796	0.00000000	-28.12500000
37.49999795	0.00000000	-8.24311000
37.69999794	0.00000000	11.57111000
37.89999793	0.00000000	25.89198000
38.09999791	0.00000000	31.08391000
38.29999790	0.00000000	26.90699000
38.49999789	0.00000000	15.13287000
38.69999788	0.00000000	-1.31643700
38.89999787	0.00000000	-17.73499000
39.09999786	0.00000000	-30.00738000
39.29999784	0.00000000	-35.10704000
39.49999783	0.00000000	-32.25270000
39.69999782	0.00000000	-23.03149000
39.89999781	0.00000000	-10.39001000
40.09999780	0.00000000	2.25147600
40.29999778	0.00000000	11.52190000
40.49999777	0.00000000	14.93602000
40.69999776	0.00000000	12.08169000
40.89999775	0.00000000	4.58907500
41.09999774	0.00000000	-4.68750000
41.29999772	0.00000000	-13.14591000
41.49999771	0.00000000	-19.05758000
41.69999770	0.00000000	-20.73696000
41.89999769	0.00000000	-17.88263000
42.09999768	0.00000000	-12.06939000
42.29999767	0.00000000	-5.75172200
42.49999765	0.00000000	-0.65821850
42.69999764	0.00000000	2.34990100
42.89999763	0.00000000	2.75590500
43.09999762	0.00000000	0.71358260
43.29999761	0.00000000	-3.05118100
43.49999759	0.00000000	-6.77903500
43.69999758	0.00000000	-9.37500000
43.89999757	0.00000000	-10.24237000
44.09999756	0.00000000	-9.87942800
44.29999755	0.00000000	-8.60605200
44.49999753	0.00000000	-6.97588500
44.69999752	0.00000000	-5.75172200
44.89999751	0.00000000	-5.70251000
45.09999750	0.00000000	-6.56373000
45.29999749	0.00000000	-7.74483200
45.49999748	0.00000000	-8.96284400
45.69999746	0.00000000	-8.50762700
45.89999745	0.00000000	-6.92667200
46.09999744	0.00000000	-5.14271600
46.29999743	0.00000000	-3.05118100
46.49999742	0.00000000	-1.01501000
46.69999740	0.00000000	-0.60900590
46.89999739	0.00000000	-1.87623000
47.09999738	0.00000000	-4.37992100
47.29999737	0.00000000	-7.73868000
47.49999736	0.00000000	-10.29158000
47.69999734	0.00000000	-12.02018000
47.89999733	0.00000000	-12.83218000
48.09999732	0.00000000	-11.97096000
48.29999731	0.00000000	-9.87942800
48.49999730	0.00000000	-6.92667200
48.69999729	0.00000000	-3.97391700
48.89999727	0.00000000	-1.82701800
49.09999726	0.00000000	-0.55979330
49.29999725	0.00000000	-0.55979330
49.49999724	0.00000000	-1.77780500
49.69999723	0.00000000	-3.46333600
49.89999721	0.00000000	-5.19192900
50.09999720	0.00000000	-6.92667200
50.29999719	0.00000000	-8.60605200
50.49999718	0.00000000	-9.83021600
50.69999717	0.00000000	-9.92864100
50.89999715	0.00000000	-9.52879000
51.09999714	0.00000000	-9.46727400
51.29999713	0.00000000	-8.55684000
51.49999712	0.00000000	-6.92667200
51.69999711	0.00000000	-5.19192900
51.89999710	0.00000000	-3.46333600
52.09999708	0.00000000	-1.77780500
52.29999707	0.00000000	-0.55979330
52.49999706	0.00000000	-0.60900590
52.69999705	0.00000000	-2.23917300
52.89999704	0.00000000	-4.77977300
53.09999702	0.00000000	-7.33882900
53.29999701	0.00000000	-9.87942800
53.49999700	0.00000000	-11.55881000
53.69999699	0.00000000	-12.02018000
53.89999698	0.00000000	-11.55881000
54.09999696	0.00000000	-9.83021600
54.29999695	0.00000000	-6.92667200
54.49999694	0.00000000	-3.92470400
54.69999693	0.00000000	-1.42101400
54.89999692	0.00000000	0.25221450
55.09999691	0.00000000	-0.14763780
55.29999689	0.00000000	-1.77780500
55.49999688	0.00000000	-3.92470400
55.69999687	0.00000000	-6.46530500
55.89999686	0.00000000	-8.60605200
56.09999685	0.00000000	-10.29158000
56.29999683	0.00000000	-11.05438000
56.49999682	0.00000000	-9.78100300
56.69999681	0.00000000	-6.87746000
56.89999680	0.00000000	-3.51254900
57.09999679	0.00000000	-0.65821850
57.29999677	0.00000000	0.25221450
57.49999676	0.00000000	-0.95964560
57.69999675	0.00000000	-2.64517700
57.89999674	0.00000000	-5.29035400
58.09999673	0.00000000	-8.60605200
58.29999672	0.00000000	-11.55881000
58.49999670	0.00000000	-13.24434000
58.69999669	0.00000000	-13.24434000
58.89999668	0.00000000	-11.50960000
59.09999667	0.00000000	-8.19389700
59.29999666	0.00000000	-4.37992100
59.49999664	0.00000000	-1.42101400
59.69999663	0.00000000	0.66437010
59.89999662	0.00000000	0.61515740
60.09999661	0.00000000	-1.82701800
60.29999660	0.00000000	-5.19192900
60.49999658	0.00000000	-8.60605200
60.69999657	0.00000000	-11.55881000
60.89999656	0.00000000	-13.24434000
61.09999655	0.00000000	-13.24434000
61.29999654	0.00000000	-11.55881000
61.49999653	0.00000000	-8.60605200
61.69999651	0.00000000	-5.19192900
61.89999650	0.00000000	-1.87623000
62.09999649	0.00000000	0.25221450
62.29999648	0.00000000	0.31373030
62.49999647	0.00000000	-0.55979330
62.69999645	0.00000000	-2.74975400
62.89999644	0.00000000	-6.46530500
63.09999643	0.00000000	-9.83021600
63.29999642	0.00000000	-11.97096000
63.49999641	0.00000000	-12.88140000
63.69999639	0.00000000	-12.43233000
63.89999638	0.00000000	-11.20202000
64.09999637	0.00000000	-9.01820900
64.29999636	0.00000000	-6.51451700
64.49999635	0.00000000	-3.92470400
64.69999634	0.00000000	-1.82701800
64.89999632	0.00000000	-0.51058070
65.09999631	0.00000000	-0.09842519
65.29999630	0.00000000	-0.55979330
65.49999629	0.00000000	-2.28838600
65.69999628	0.00000000	-5.24114100
65.89999626	0.00000000	-8.55684000
66.09999625	0.00000000	-11.15280000
66.29999624	0.00000000	-12.48154000
66.49999623	0.00000000	-13.34276000
66.69999622	0.00000000	-13.29355000
66.89999620	0.00000000	-12.02018000
67.09999619	0.00000000	-9.87942800
67.29999618	0.00000000	-6.82824800
67.49999617	0.00000000	-3.10039400
67.69999616	0.00000000	0.25221450
67.89999615	0.00000000	1.53174200
68.09999613	0.00000000	1.16879900
68.29999612	0.00000000	-0.55979330
68.49999611	0.00000000	-3.56176100
68.69999610	0.00000000	-7.33882900
68.89999609	0.00000000	-11.15280000
69.09999607	0.00000000	-13.70571000
69.29999606	0.00000000	-14.97293000
69.49999605	0.00000000	-14.51772000
69.69999604	0.00000000	-11.97096000
69.89999603	0.00000000	-8.19389700
70.09999601	0.00000000	-3.92470400
70.29999600	0.00000000	-0.14763780
70.49999599	0.00000000	2.39911400
70.69999598	0.00000000	2.85433100
70.89999597	0.00000000	1.58095500
71.09999596	0.00000000	-0.96579720
71.29999594	0.00000000	-4.77977300
71.49999593	0.00000000	-8.60605200
71.69999592	0.00000000	-12.02018000
71.89999591	0.00000000	-14.51772000
72.09999590	0.00000000	-14.92372000
72.29999588	0.00000000	-13.29355000
72.49999587	0.00000000	-10.34080000
72.69999586	0.00000000	-6.92667200
72.89999585	0.00000000	-3.46333600
73.09999584	0.00000000	-0.14763780
73.29999582	0.00000000	1.93774600
73.49999581	0.00000000	1.53174200
73.69999580	0.00000000	-0.55979330
73.89999579	0.00000000	-3.97391700
74.09999578	0.00000000	-8.14468500
74.29999577	0.00000000	-11.50960000
74.49999575	0.00000000	-13.24434000
74.69999574	0.00000000	-13.24434000
74.89999573	0.00000000	-11.55881000
75.09999572	0.00000000	-8.60605200
75.29999571	0.00000000	-5.19192900
75.49999569	0.00000000	-1.82701800
75.69999568	0.00000000	0.66437010
75.89999567	0.00000000	1.07037400
76.09999566	0.00000000	-0.55979330
76.29999565	0.00000000	-3.56176100
76.49999563	0.00000000	-7.38804100
76.69999562	0.00000000	-11.55881000
76.89999561	0.00000000	-14.46850000
77.09999560	0.00000000	-14.92372000
77.29999559	0.00000000	-13.24434000
77.49999558	0.00000000	-9.83021600
77.69999556	0.00000000	-5.19192900
77.89999555	0.00000000	-0.55979330
78.09999554	0.00000000	2.80511800
78.29999553	0.00000000	4.07849400
78.49999552	0.00000000	2.80511800
78.69999550	0.00000000	-0.60900590
78.89999549	0.00000000	-5.65329700
79.09999548	0.00000000	-11.15280000
79.29999547	0.00000000	-15.38509000
79.49999546	0.00000000	-17.93184000
79.69999544	0.00000000	-17.88263000
79.89999543	0.00000000	-14.92372000
80.09999542	0.00000000	-9.87942800
80.29999541	0.00000000	-3.97391700
80.49999540	0.00000000	1.11958700
80.69999539	0.00000000	4.53371000
80.89999537	0.00000000	5.80708600
81.09999536	0.00000000	4.53371000
81.29999535	0.00000000	1.07037400
81.49999534	0.00000000	-4.42913300
81.69999533	0.00000000	-11.10359000
81.89999531	0.00000000	-16.19710000
82.09999530	0.00000000	-18.79921000
82.29999529	0.00000000	-19.20522000
82.49999528	0.00000000	-16.65846000
82.69999527	0.00000000	-12.06939000
82.89999525	0.00000000	-6.92667200
83.09999524	0.00000000	-1.77780500
83.29999523	0.00000000	2.85433100
83.49999522	0.00000000	5.76402500
83.69999521	0.00000000	5.81323800
83.89999520	0.00000000	3.31569900
84.09999518	0.00000000	-0.55979330
84.29999517	0.00000000	-5.65329700
84.49999516	0.00000000	-11.15280000
84.69999515	0.00000000	-15.38509000
84.89999514	0.00000000	-17.98105000
85.09999512	0.00000000	-18.38706000
85.29999511	0.00000000	-16.70768000
85.49999510	0.00000000	-13.24434000
85.69999509	0.00000000	-8.14468500
85.89999508	0.00000000	-2.28838600
86.09999506	0.00000000	2.39911400
86.29999505	0.00000000	4.99507900
86.49999504	0.00000000	5.85629900
86.69999503	0.00000000	4.48449800
86.89999502	0.00000000	0.71358260
87.09999501	0.00000000	-4.78592500
87.29999499	0.00000000	-10.29158000
87.49999498	0.00000000	-14.97293000
87.69999497	0.00000000	-17.93184000
87.89999496	0.00000000	-18.38706000
88.09999495	0.00000000	-16.65846000
88.29999493	0.00000000	-12.83834000
88.49999492	0.00000000	-7.38804100
88.69999491	0.00000000	-2.28838600
88.89999490	0.00000000	1.58095500
89.09999489	0.00000000	4.07849400
89.29999487	0.00000000	4.07849400
89.49999486	0.00000000	1.58095500
89.69999485	0.00000000	-2.18996000
89.89999484	0.00000000	-6.46530500
90.09999483	0.00000000	-10.29158000
90.29999482	0.00000000	-13.29355000
90.49999480	0.00000000	-14.97293000
90.69999479	0.00000000	-14.97293000
90.89999478	0.00000000	-13.24434000
91.09999477	0.00000000	-9.92864100
91.29999476	0.00000000	-6.11466500
91.49999474	0.00000000	-3.14960600
91.69999473	0.00000000	-0.96579720
91.89999472	0.00000000	-0.14763780
92.09999471	0.00000000	-0.55979330
92.29999470	0.00000000	-2.23917300
92.49999468	0.00000000	-4.73056000
92.69999467	0.00000000	-6.87746000
92.89999466	0.00000000	-8.60605200
93.09999465	0.00000000	-9.87942800
93.29999464	0.00000000	-10.29158000
93.49999463	0.00000000	-9.87942800
93.69999461	0.00000000	-8.65526600
93.89999460	0.00000000	-7.38804100
94.09999459	0.00000000	-6.46530500
94.29999458	0.00000000	-5.24114100
94.49999457	0.00000000	-4.42913300
94.69999455	0.00000000	-4.77977300
94.89999454	0.00000000	-5.14271600
95.09999453	0.00000000	-5.19192900
95.29999452	0.00000000	-5.19192900
95.49999451	0.00000000	-5.24114100
95.69999449	0.00000000	-5.65329700
95.89999448	0.00000000	-6.51451700
96.09999447	0.00000000	-7.33882900
96.29999446	0.00000000	-8.24311000
96.49999445	0.00000000	-8.96899500
96.69999444	0.00000000	-9.06126900
96.89999442	0.00000000	-8.20620100
97.09999441	0.00000000	-7.83710600
97.29999440	0.00000000	-7.28961600
97.49999439	0.00000000	-6.51451700
97.69999438	0.00000000	-5.65329700
97.89999436	0.00000000	-5.24114100
98.09999435	0.00000000	-5.14271600
98.29999434	0.00000000	-4.77977300
98.49999433	0.00000000	-4.37992100
98.69999432	0.00000000	-4.82898600
98.89999430	0.00000000	-5.65329700
99.09999429	0.00000000	-6.92667200
99.29999428	0.00000000	-8.14468500
99.49999427	0.00000000	-8.60605200
99.69999426	0.00000000	-8.60605200
99.89999425	0.00000000	-8.19389700
100.09999423	0.00000000	-7.33882900
100.29999422	0.00000000	-6.51451700
100.49999421	0.00000000	-5.60408400
100.69999420	0.00000000	-4.77977300
100.89999419	0.00000000	-3.97391700
101.09999417	0.00000000	-3.97391700
101.29999416	0.00000000	-4.77977300
101.49999415	0.00000000	-5.65329700
101.69999414	0.00000000	-6.92667200
101.89999413	0.00000000	-8.14468500
102.09999411	0.00000000	-8.60605200
102.29999410	0.00000000	-8.65526600
102.49999409	0.00000000	-8.55684000
102.69999408	0.00000000	-7.73868000
102.89999407	0.00000000	-6.10851300
103.09999406	0.00000000	-5.24114100
103.29999404	0.00000000	-4.73056000
103.49999403	0.00000000	-3.97391700
103.69999402	0.00000000	-3.97391700
103.89999401	0.00000000	-4.77977300
104.09999400	0.00000000	-5.60408400
104.29999398	0.00000000	-6.51451700
104.49999397	0.00000000	-7.33882900
104.69999396	0.00000000	-8.19389700
104.89999395	0.00000000	-8.55684000
105.09999394	0.00000000	-8.19389700
105.29999392	0.00000000	-7.33882900
105.49999391	0.00000000	-6.51451700
105.69999390	0.00000000	-5.55487200
105.89999389	0.00000000	-4.32455700
106.09999388	0.00000000	-2.69439000
106.29999387	0.00000000	-2.33759800
106.49999385	0.00000000	-3.46333600
106.69999384	0.00000000	-4.73056000
106.89999383	0.00000000	-5.60408400
107.09999382	0.00000000	-6.51451700
107.29999381	0.00000000	-7.33882900
107.49999379	0.00000000	-8.19389700
107.69999378	0.00000000	-8.55684000
107.89999377	0.00000000	-8.19389700
108.09999376	0.00000000	-7.33882900
108.29999375	0.00000000	-6.51451700
108.49999374	0.00000000	-5.60408400
108.69999372	0.00000000	-4.82898600
