Time	Channel A	Channel B
(us)	(V)	(mV)

-4.49999956	0.00000000	-10.39001000
-4.29999957	0.00000000	-10.39001000
-4.09999958	0.00000000	-10.43922000
-3.89999959	0.00000000	-10.75295000
-3.69999960	0.00000000	-10.78986000
-3.49999962	0.00000000	-9.98400600
-3.29999963	0.00000000	-10.02707000
-3.09999964	0.00000000	-10.34080000
-2.89999965	0.00000000	-10.34080000
-2.69999966	0.00000000	-9.97785300
-2.49999968	0.00000000	-9.57800100
-2.29999969	0.00000000	-9.97785300
-2.09999970	0.00000000	-10.34080000
-1.89999971	0.00000000	-10.39001000
-1.69999972	0.00000000	-10.39001000
-1.49999973	0.00000000	-10.39001000
-1.29999975	0.00000000	-10.39001000
-1.09999976	0.00000000	-10.39001000
-0.89999977	0.00000000	-10.39001000
-0.69999978	0.00000000	-10.34080000
-0.49999979	0.00000000	-9.97785300
-0.29999981	0.35125490	-9.57800100
-0.09999982	0.70250980	-9.97785300
0.10000017	1.05376500	-10.34080000
0.30000016	1.05376500	-10.43922000
0.50000015	0.70250980	-10.80217000
0.70000013	0.00000000	-11.20202000
0.90000012	-0.87844490	-10.80217000
1.10000011	-1.93282500	-10.43922000
1.30000010	-2.63533500	-10.34080000
1.50000009	-2.81127000	-9.92864100
1.70000008	-2.10814500	-9.11663300
1.90000006	-0.70250980	-8.75369100
2.10000005	1.40563500	-9.11663300
2.30000004	3.33846000	-9.92864100
2.50000003	4.91941500	-10.39001000
2.70000002	5.27128500	-10.85138000
2.90000000	4.21690500	-11.65723000
3.09999999	1.93282500	-12.06939000
3.29999998	-1.40563500	-12.06939000
3.49999997	-4.74409400	-11.65723000
3.69999996	-7.20410900	-10.80217000
3.89999994	-8.08255400	-9.97785300
4.09999993	-6.85223900	-9.11663300
4.29999992	-3.68971500	-8.70447700
4.49999991	0.52657480	-8.65526600
4.69999990	4.91941500	-8.70447700
4.89999989	8.25849000	-9.16584600
5.09999987	9.48818900	-10.39001000
5.29999986	8.43380900	-11.60802000
5.49999985	5.09534900	-12.06939000
5.69999984	0.35125490	-12.06939000
5.89999983	-4.21690500	-11.65723000
6.09999981	-7.73129900	-10.80217000
6.29999980	-9.48818900	-9.97785300
6.49999979	-8.60974400	-9.11663300
6.69999978	-5.79847400	-8.70447700
6.89999977	-1.58095500	-8.65526600
7.09999975	2.63533500	-8.70447700
7.29999974	5.97379400	-9.11663300
7.49999973	7.55536400	-9.97785300
7.69999972	7.20410900	-10.75295000
7.89999971	5.09534900	-11.25123000
8.09999970	1.93282500	-11.20817000
8.29999968	-1.22970000	-11.25123000
8.49999967	-3.86565000	-10.80217000
8.69999966	-5.09534900	-10.43922000
8.89999965	-4.91941500	-10.39001000
9.09999964	-3.68971500	-10.39001000
9.29999962	-1.75689000	-10.34080000
9.49999961	0.17531990	-9.87942800
9.69999960	1.75689000	-8.70447700
9.89999959	2.45940000	-7.94168200
10.09999958	2.45940000	-8.65526600
10.29999956	1.75689000	-9.46727400
10.49999955	0.87844490	-9.47957600
10.69999954	0.00000000	-9.46727400
10.89999953	-0.70250980	-8.70447700
11.09999952	-1.05376500	-8.40305000
11.29999951	-0.87844490	-9.92864100
11.49999949	-0.70250980	-11.10359000
11.69999948	-0.35125490	-10.80217000
11.89999947	-0.17531990	-10.43922000
12.09999946	0.00000000	-10.39001000
12.29999945	0.00000000	-10.43922000
12.49999943	0.00000000	-10.80217000
12.69999942	-0.17531990	-11.20202000
12.89999941	-0.17531990	-10.80217000
13.09999940	-0.17531990	-10.48843000
13.29999939	0.00000000	-10.80217000
13.49999937	0.00000000	-11.20202000
13.69999936	0.00000000	-10.80217000
13.89999935	0.00000000	-10.43922000
14.09999934	0.00000000	-10.39001000
14.29999933	0.00000000	-10.39001000
14.49999932	0.00000000	-10.39001000
14.69999930	0.00000000	-10.39001000
14.89999929	0.00000000	-10.39001000
15.09999928	0.00000000	-10.39001000
15.29999927	0.00000000	-10.39001000
15.49999926	0.00000000	-10.39001000
15.69999924	0.00000000	-10.39001000
15.89999923	0.00000000	-10.39001000
16.09999922	0.00000000	-10.39001000
16.29999921	0.00000000	-10.39001000
16.49999920	0.00000000	-10.39001000
16.69999919	0.00000000	-10.43922000
16.89999917	0.00000000	-10.80217000
17.09999916	0.00000000	-11.20202000
17.29999915	0.00000000	-10.80217000
17.49999914	0.00000000	-10.43922000
17.69999913	0.00000000	-10.39001000
17.89999911	0.00000000	-10.39001000
18.09999910	0.00000000	-10.39001000
18.29999909	0.00000000	-10.39001000
18.49999908	0.00000000	-10.39001000
18.69999907	0.00000000	-10.39001000
18.89999905	0.00000000	-10.39001000
19.09999904	0.00000000	-10.39001000
19.29999903	0.00000000	-10.39001000
19.49999902	0.00000000	-10.39001000
19.69999901	0.00000000	-10.39001000
19.89999900	0.00000000	-10.39001000
20.09999898	0.00000000	-10.39001000
20.29999897	0.00000000	-10.39001000
20.49999896	0.00000000	-10.39001000
20.69999895	0.00000000	-10.39001000
20.89999894	0.00000000	-10.39001000
21.09999892	0.00000000	-10.39001000
21.29999891	0.00000000	-10.39001000
21.49999890	0.00000000	-10.39001000
21.69999889	0.00000000	-10.39001000
21.89999888	0.00000000	-10.39001000
22.09999886	0.00000000	-10.39001000
22.29999885	0.00000000	-10.39001000
22.49999884	0.00000000	-10.39001000
22.69999883	0.00000000	-10.39001000
22.89999882	0.00000000	-10.39001000
23.09999881	0.00000000	-10.43922000
23.29999879	0.00000000	-10.85138000
23.49999878	0.00000000	-11.65723000
23.69999877	0.00000000	-12.02018000
23.89999876	0.00000000	-11.65723000
24.09999875	0.00000000	-10.85138000
24.29999873	0.00000000	-10.39001000
24.49999872	0.00000000	-9.87942800
24.69999871	0.00000000	-8.75369100
24.89999870	0.00000000	-8.20620100
25.09999869	0.00000000	-8.13853400
25.29999867	0.00000000	-6.56988100
25.49999866	0.00000000	-6.40994000
25.69999865	0.00000000	-9.16584600
25.89999864	0.00000000	-12.93061000
26.09999863	0.00000000	-15.89567000
26.29999862	0.00000000	-18.07948000
26.49999860	0.00000000	-18.79921000
26.69999859	0.00000000	-17.56890000
26.89999858	0.00000000	-14.11786000
27.09999857	0.00000000	-9.42421200
27.29999856	0.00000000	-3.46333600
27.49999854	0.00000000	2.34990100
27.69999853	0.00000000	5.71481200
27.89999852	0.00000000	5.66560000
28.09999851	0.00000000	1.79010800
28.29999850	0.00000000	-5.85014700
28.49999848	0.00000000	-15.58194000
28.69999847	0.00000000	-25.31373000
28.89999846	0.00000000	-32.91092000
29.09999845	0.00000000	-36.17741000
29.29999844	0.00000000	-33.56914000
29.49999843	0.00000000	-24.61245000
29.69999841	0.00000000	-11.10359000
29.89999840	0.00000000	4.12770700
30.09999839	0.00000000	17.17520000
30.29999838	0.00000000	24.76624000
30.49999837	0.00000000	24.71703000
30.69999835	0.00000000	16.61540000
30.89999834	0.00000000	1.74089600
31.09999833	0.00000000	-17.26747000
31.29999832	0.00000000	-35.86368000
31.49999831	0.00000000	-49.37254000
31.69999829	0.00000000	-54.82283000
31.89999828	0.00000000	-50.08612000
32.09999827	0.00000000	-35.71604000
32.29999826	0.00000000	-14.92987000
32.49999825	0.00000000	7.90477300
32.69999824	0.00000000	27.72515000
32.89999822	0.00000000	39.09325000
33.09999821	0.00000000	39.09325000
33.29999820	0.00000000	27.67593000
33.49999819	0.00000000	7.39419200
33.69999818	0.00000000	-16.80610000
33.89999816	0.00000000	-40.05290000
34.09999815	0.00000000	-57.32037000
34.29999814	0.00000000	-63.23819000
34.49999813	0.00000000	-56.96973000
34.69999812	0.00000000	-40.45275000
34.89999810	0.00000000	-17.16904000
35.09999809	0.00000000	7.34498000
35.29999808	0.00000000	27.67593000
35.49999807	0.00000000	39.09325000
35.69999806	0.00000000	39.09325000
35.89999805	0.00000000	27.67593000
36.09999803	0.00000000	7.44340500
36.29999802	0.00000000	-16.20325000
36.49999801	0.00000000	-37.40157000
36.69999800	0.00000000	-51.77165000
36.89999799	0.00000000	-55.99778000
37.09999797	0.00000000	-48.86195000
37.29999796	0.00000000	-32.91092000
37.49999795	0.00000000	-12.62918000
37.69999794	0.00000000	6.83439900
37.89999793	0.00000000	21.20448000
38.09999791	0.00000000	27.16535000
38.29999790	0.00000000	23.39444000
38.49999789	0.00000000	11.62032000
38.69999788	0.00000000	-5.24114100
38.89999787	0.00000000	-22.42249000
39.09999786	0.00000000	-34.70103000
39.29999784	0.00000000	-39.03174000
39.49999783	0.00000000	-35.76525000
39.69999782	0.00000000	-26.49483000
39.89999781	0.00000000	-13.90256000
40.09999780	0.00000000	-1.62401600
40.29999778	0.00000000	7.24655500
40.49999777	0.00000000	11.06053000
40.69999776	0.00000000	8.56914300
40.89999775	0.00000000	1.07652500
41.09999774	0.00000000	-8.60605200
41.29999772	0.00000000	-17.88263000
41.49999771	0.00000000	-24.20029000
41.69999770	0.00000000	-25.88582000
41.89999769	0.00000000	-22.66855000
42.09999768	0.00000000	-16.40625000
42.29999767	0.00000000	-10.07628000
42.49999765	0.00000000	-4.52755900
42.69999764	0.00000000	-1.16264800
42.89999763	0.00000000	-0.75664370
43.09999762	0.00000000	-3.20497000
43.29999761	0.00000000	-7.73868000
43.49999759	0.00000000	-11.50960000
43.69999758	0.00000000	-13.70571000
43.89999757	0.00000000	-14.56693000
44.09999756	0.00000000	-13.75492000
44.29999755	0.00000000	-12.11860000
44.49999753	0.00000000	-10.43922000
44.69999752	0.00000000	-9.16584600
44.89999751	0.00000000	-8.80290300
45.09999750	0.00000000	-9.57185000
45.29999749	0.00000000	-11.20202000
45.49999748	0.00000000	-12.02018000
45.69999746	0.00000000	-12.02018000
45.89999745	0.00000000	-11.15280000
46.09999744	0.00000000	-9.06742000
46.29999743	0.00000000	-7.02509800
46.49999742	0.00000000	-5.70251000
46.69999740	0.00000000	-5.33956700
46.89999739	0.00000000	-6.20693900
47.09999738	0.00000000	-8.75369100
47.29999737	0.00000000	-12.06939000
47.49999736	0.00000000	-15.07136000
47.69999734	0.00000000	-17.16904000
47.89999733	0.00000000	-17.98105000
48.09999732	0.00000000	-16.70768000
48.29999731	0.00000000	-13.80413000
48.49999730	0.00000000	-10.43922000
48.69999729	0.00000000	-7.43725300
48.89999727	0.00000000	-5.29035400
49.09999726	0.00000000	-4.02313000
49.29999725	0.00000000	-4.02313000
49.49999724	0.00000000	-5.29035400
49.69999723	0.00000000	-7.38804100
49.89999721	0.00000000	-9.92864100
50.09999720	0.00000000	-12.02018000
50.29999719	0.00000000	-13.39198000
50.49999718	0.00000000	-14.26550000
50.69999717	0.00000000	-15.07136000
50.89999715	0.00000000	-15.02214000
51.09999714	0.00000000	-13.85334000
51.29999713	0.00000000	-12.53076000
51.49999712	0.00000000	-11.20202000
51.69999711	0.00000000	-9.06742000
51.89999710	0.00000000	-7.02509800
52.09999708	0.00000000	-5.70251000
52.29999707	0.00000000	-5.29035400
52.49999706	0.00000000	-5.65329700
52.69999705	0.00000000	-6.61294300
52.89999704	0.00000000	-8.30462600
53.09999702	0.00000000	-11.30044000
53.29999701	0.00000000	-14.11786000
53.49999700	0.00000000	-15.93873000
53.69999699	0.00000000	-16.30783000
53.89999698	0.00000000	-15.93873000
54.09999696	0.00000000	-14.16708000
54.29999695	0.00000000	-11.65723000
54.49999694	0.00000000	-8.65526600
54.69999693	0.00000000	-5.75172200
54.89999692	0.00000000	-4.07234200
55.09999691	0.00000000	-4.07234200
55.29999689	0.00000000	-5.75172200
55.49999688	0.00000000	-8.70447700
55.69999687	0.00000000	-12.06939000
55.89999686	0.00000000	-15.02214000
56.09999685	0.00000000	-16.70768000
56.29999683	0.00000000	-16.70768000
56.49999682	0.00000000	-15.02214000
56.69999681	0.00000000	-12.06939000
56.89999680	0.00000000	-8.70447700
57.09999679	0.00000000	-5.75172200
57.29999677	0.00000000	-4.07234200
57.49999676	0.00000000	-4.07234200
57.69999675	0.00000000	-5.75172200
57.89999674	0.00000000	-8.70447700
58.09999673	0.00000000	-12.06939000
58.29999672	0.00000000	-15.02214000
58.49999670	0.00000000	-16.70768000
58.69999669	0.00000000	-16.70768000
58.89999668	0.00000000	-14.97293000
59.09999667	0.00000000	-11.65723000
59.29999666	0.00000000	-7.84325700
59.49999664	0.00000000	-4.87819900
59.69999663	0.00000000	-2.74360200
59.89999662	0.00000000	-2.38681100
60.09999661	0.00000000	-4.07234200
60.29999660	0.00000000	-7.43725300
60.49999658	0.00000000	-11.60802000
60.69999657	0.00000000	-15.02214000
60.89999656	0.00000000	-17.11983000
61.09999655	0.00000000	-17.56890000
61.29999654	0.00000000	-15.84646000
61.49999653	0.00000000	-12.97982000
61.69999651	0.00000000	-9.52879000
61.89999650	0.00000000	-6.61294300
62.09999649	0.00000000	-4.47834600
62.29999648	0.00000000	-4.07234200
62.49999647	0.00000000	-5.29035400
62.69999645	0.00000000	-7.43725300
62.89999644	0.00000000	-10.39001000
63.09999643	0.00000000	-13.34276000
63.29999642	0.00000000	-15.48351000
63.49999641	0.00000000	-16.75689000
63.69999639	0.00000000	-16.75689000
63.89999638	0.00000000	-15.53273000
64.09999637	0.00000000	-13.80413000
64.29999636	0.00000000	-11.65723000
64.49999635	0.00000000	-9.11663300
64.69999634	0.00000000	-6.97588500
64.89999632	0.00000000	-5.29035400
65.09999631	0.00000000	-4.42913300
65.29999630	0.00000000	-4.87819900
65.49999629	0.00000000	-6.10851300
65.69999628	0.00000000	-8.29232200
65.89999626	0.00000000	-10.80217000
66.09999625	0.00000000	-13.44119000
66.29999624	0.00000000	-15.94488000
66.49999623	0.00000000	-18.03026000
66.69999622	0.00000000	-18.38706000
66.89999620	0.00000000	-16.75689000
67.09999619	0.00000000	-13.80413000
67.29999618	0.00000000	-10.39001000
67.49999617	0.00000000	-6.97588500
67.69999616	0.00000000	-4.21998000
67.89999615	0.00000000	-3.98006900
68.09999613	0.00000000	-5.53641700
68.29999612	0.00000000	-5.25344500
68.49999611	0.00000000	-6.40994000
68.69999610	0.00000000	-10.48843000
68.89999609	0.00000000	-15.43430000
69.09999607	0.00000000	-19.25443000
69.29999606	0.00000000	-20.53395000
69.49999605	0.00000000	-19.76501000
69.69999604	0.00000000	-17.16904000
69.89999603	0.00000000	-13.39198000
70.09999601	0.00000000	-9.11663300
70.29999600	0.00000000	-5.29035400
70.49999599	0.00000000	-2.33759800
70.69999598	0.00000000	-1.11343500
70.89999597	0.00000000	-2.33759800
71.09999596	0.00000000	-5.24114100
71.29999594	0.00000000	-8.70447700
71.49999593	0.00000000	-12.48154000
71.69999592	0.00000000	-15.88952000
71.89999591	-0.17531990	-17.58120000
72.09999590	0.00000000	-18.07948000
72.29999588	0.00000000	-17.11983000
72.49999587	0.00000000	-14.61614000
72.69999586	0.00000000	-10.80217000
72.89999585	0.00000000	-7.02509800
73.09999584	0.00000000	-4.02313000
73.29999582	0.00000000	-2.38681100
73.49999581	0.00000000	-2.79281500
73.69999580	0.00000000	-5.29035400
73.89999579	0.00000000	-8.65526600
74.09999578	0.00000000	-12.06939000
74.29999577	0.00000000	-15.07136000
74.49999575	0.00000000	-17.11983000
74.69999574	0.00000000	-17.51968000
74.89999573	0.00000000	-15.43430000
75.09999572	0.00000000	-12.11860000
75.29999571	0.00000000	-8.70447700
75.49999569	0.00000000	-5.75172200
75.69999568	0.00000000	-4.02313000
75.89999567	0.00000000	-3.61097400
76.09999566	0.00000000	-4.52755900
76.29999565	0.00000000	-7.48646600
76.49999563	0.00000000	-11.65723000
76.69999562	0.00000000	-15.48351000
76.89999561	0.00000000	-18.43627000
77.09999560	0.00000000	-19.61122000
77.29999559	0.00000000	-17.98105000
77.49999558	0.00000000	-14.16708000
77.69999556	0.00000000	-9.52263600
77.89999555	0.00000000	-4.42913300
78.09999554	0.00000000	-0.70743110
78.29999553	0.00000000	0.61515740
78.49999552	0.00000000	-0.65821850
78.69999550	0.00000000	-4.07234200
78.89999549	0.00000000	-9.16584600
79.09999548	0.00000000	-15.07136000
79.29999547	0.00000000	-20.07259000
79.49999546	0.00000000	-22.66855000
79.69999544	0.00000000	-22.21334000
79.89999543	0.00000000	-19.30364000
80.09999542	0.00000000	-14.16708000
80.29999541	0.00000000	-8.29232200
80.49999540	0.00000000	-2.74975400
80.69999539	0.00000000	1.02731300
80.89999537	0.00000000	2.29453700
81.09999536	0.00000000	0.66437010
81.29999535	0.00000000	-3.19881900
81.49999534	0.00000000	-8.30462600
81.69999533	0.00000000	-14.66535000
81.89999531	0.00000000	-20.07259000
82.09999530	0.00000000	-23.08071000
82.29999529	0.00000000	-23.12992000
82.49999528	0.00000000	-20.58317000
82.69999527	0.00000000	-16.35089000
82.89999525	0.00000000	-10.80217000
83.09999524	0.00000000	-5.29035400
83.29999523	0.00000000	-0.65821850
83.49999522	0.00000000	1.88853300
83.69999521	0.00000000	1.53174200
83.89999520	0.00000000	-0.55979330
84.09999518	0.00000000	-4.07234200
84.29999517	0.00000000	-9.16584600
84.49999516	0.00000000	-15.02214000
84.69999515	0.00000000	-19.66043000
84.89999514	0.00000000	-21.85039000
85.09999512	0.00000000	-21.89960000
85.29999511	0.00000000	-20.17101000
85.49999510	0.00000000	-16.75689000
85.69999509	0.00000000	-12.06939000
85.89999508	0.00000000	-6.97588500
86.09999506	0.00000000	-2.33759800
86.29999505	0.00000000	0.61515740
86.49999504	0.00000000	1.07037400
86.69999503	0.00000000	-0.60900590
86.89999502	0.00000000	-4.02313000
87.09999501	0.00000000	-8.70447700
87.29999499	0.00000000	-13.80413000
87.49999498	0.00000000	-18.43627000
87.69999497	0.00000000	-21.39518000
87.89999496	0.00000000	-21.85039000
88.09999495	0.00000000	-20.17101000
88.29999493	0.00000000	-16.75689000
88.49999492	0.00000000	-12.06939000
88.69999491	0.00000000	-7.02509800
88.89999490	0.00000000	-2.79896600
89.09999489	0.00000000	-0.65821850
89.29999487	0.00000000	-0.60900590
89.49999486	0.00000000	-2.33759800
89.69999485	0.00000000	-5.70251000
89.89999484	0.00000000	-9.97785300
90.09999483	0.00000000	-14.16708000
90.29999482	0.00000000	-17.61811000
90.49999480	0.00000000	-19.26058000
90.69999479	0.00000000	-19.30364000
90.89999478	0.00000000	-17.16904000
91.09999477	0.00000000	-13.85334000
91.29999476	0.00000000	-10.43922000
91.49999474	0.00000000	-7.43725300
91.69999473	0.00000000	-5.33956700
91.89999472	0.00000000	-4.47834600
92.09999471	0.00000000	-5.29035400
92.29999470	0.00000000	-7.02509800
92.49999468	0.00000000	-9.47957600
92.69999467	0.00000000	-12.06324000
92.89999466	0.00000000	-13.29970000
93.09999465	0.00000000	-14.25320000
93.29999464	0.00000000	-14.21629000
93.49999463	0.00000000	-13.85334000
93.69999461	0.00000000	-13.34276000
93.89999460	0.00000000	-12.11860000
94.09999459	0.00000000	-10.85138000
94.29999458	0.00000000	-9.97785300
94.49999457	0.00000000	-9.06742000
94.69999455	0.00000000	-8.29232200
94.89999454	0.00000000	-7.84325700
95.09999453	0.00000000	-8.29232200
95.29999452	0.00000000	-9.01820900
95.49999451	0.00000000	-9.51648500
95.69999449	0.00000000	-9.57800100
95.89999448	0.00000000	-10.43922000
96.09999447	0.00000000	-11.60802000
96.29999446	0.00000000	-11.97096000
96.49999445	0.00000000	-11.30044000
96.69999444	0.00000000	-10.44537000
96.89999442	0.00000000	-10.88829000
97.09999441	0.00000000	-11.20817000
97.29999440	0.00000000	-11.65723000
97.49999439	0.00000000	-11.55881000
97.69999438	0.00000000	-10.39001000
97.89999436	0.00000000	-9.16584600
98.09999435	0.00000000	-8.70447700
98.29999434	0.00000000	-8.70447700
98.49999433	0.00000000	-9.11663300
98.69999432	0.00000000	-9.97785300
98.89999430	0.00000000	-10.80217000
99.09999429	0.00000000	-11.65723000
99.29999428	0.00000000	-12.11860000
99.49999427	0.00000000	-12.57997000
99.69999426	0.00000000	-13.34276000
99.89999425	0.00000000	-13.29355000
100.09999423	0.00000000	-12.06939000
100.29999422	0.00000000	-10.43922000
100.49999421	0.00000000	-9.16584600
100.69999420	0.00000000	-8.70447700
100.89999419	0.00000000	-8.65526600
101.09999417	0.00000000	-8.70447700
101.29999416	0.00000000	-9.11663300
101.49999415	0.00000000	-10.02707000
101.69999414	0.00000000	-11.25738000
101.89999413	0.00000000	-12.88755000
102.09999411	0.00000000	-13.34276000
102.29999410	0.00000000	-12.99213000
102.49999409	0.00000000	-12.93061000
102.69999408	0.00000000	-12.02018000
102.89999407	0.00000000	-10.43922000
103.09999406	0.00000000	-9.11663300
103.29999404	0.00000000	-8.24311000
103.49999403	0.00000000	-7.43725300
103.69999402	0.00000000	-7.48646600
103.89999401	0.00000000	-8.70447700
104.09999400	0.00000000	-10.34080000
104.29999398	0.00000000	-11.60802000
104.49999397	0.00000000	-12.06939000
104.69999396	0.00000000	-12.11860000
104.89999395	0.00000000	-12.06939000
105.09999394	0.00000000	-11.65723000
105.29999392	0.00000000	-10.80217000
105.49999391	0.00000000	-9.97785300
105.69999390	0.00000000	-9.11663300
105.89999389	0.00000000	-8.70447700
106.09999388	0.00000000	-8.65526600
106.29999387	0.00000000	-8.65526600
106.49999385	0.00000000	-8.70447700
106.69999384	0.00000000	-9.16584600
106.89999383	0.00000000	-10.39001000
107.09999382	0.00000000	-11.65723000
107.29999381	0.00000000	-12.48154000
