Time	Channel A	Channel B
(us)	(V)	(mV)

-4.49999956	0.00000000	-6.92667200
-4.29999957	0.00000000	-6.92667200
-4.09999958	0.00000000	-6.92667200
-3.89999959	0.00000000	-6.92667200
-3.69999960	0.00000000	-6.92667200
-3.49999962	0.00000000	-6.92667200
-3.29999963	0.00000000	-6.92667200
-3.09999964	0.00000000	-6.92667200
-2.89999965	0.00000000	-6.92667200
-2.69999966	0.00000000	-6.92667200
-2.49999968	0.00000000	-6.92667200
-2.29999969	0.00000000	-6.92667200
-2.09999970	0.00000000	-6.92667200
-1.89999971	0.00000000	-6.92667200
-1.69999972	0.00000000	-6.92667200
-1.49999973	0.00000000	-6.92667200
-1.29999975	0.00000000	-6.92667200
-1.09999976	0.00000000	-6.92667200
-0.89999977	0.00000000	-6.92667200
-0.69999978	0.00000000	-6.92667200
-0.49999979	0.00000000	-6.92667200
-0.29999981	0.35125490	-6.92667200
-0.09999982	0.70250980	-6.97588500
0.10000017	1.05376500	-7.33882900
0.30000016	0.87844490	-7.78789300
0.50000015	0.70250980	-7.74483200
0.70000013	0.00000000	-7.83710600
0.90000012	-0.87844490	-7.74483200
1.10000011	-1.93282500	-7.78789300
1.30000010	-2.63533500	-7.33882900
1.50000009	-2.81127000	-6.97588500
1.70000008	-2.10814500	-6.92667200
1.90000006	-0.70250980	-6.92667200
2.10000005	1.22970000	-6.92667200
2.30000004	3.33846000	-6.92667200
2.50000003	4.91941500	-6.97588500
2.70000002	5.27128500	-7.38804100
2.90000000	4.21690500	-8.19389700
3.09999999	1.93282500	-8.60605200
3.29999998	-1.40563500	-8.65526600
3.49999997	-4.74409400	-8.60605200
3.69999996	-7.20410900	-8.14468500
3.89999994	-8.08255400	-6.92667200
4.09999993	-6.85223900	-5.70251000
4.29999992	-3.68971500	-5.24114100
4.49999991	0.52657480	-5.24114100
4.69999990	4.91941500	-5.65329700
4.89999989	8.25849000	-6.51451700
5.09999987	9.48818900	-7.33882900
5.29999986	8.43380900	-8.24311000
5.49999985	5.09534900	-9.01820900
5.69999984	0.52657480	-9.46727400
5.89999983	-4.21690500	-9.01820900
6.09999981	-7.90661900	-8.24311000
6.29999980	-9.48818900	-7.38804100
6.49999979	-8.78567900	-6.92667200
6.69999978	-5.79847400	-6.46530500
6.89999977	-1.58095500	-5.65329700
7.09999975	2.63533500	-5.29035400
7.29999974	5.97379400	-5.65329700
7.49999973	7.55536400	-6.51451700
7.69999972	7.20410900	-7.33882900
7.89999971	5.09534900	-8.19389700
8.09999970	1.93282500	-8.55684000
8.29999968	-1.22970000	-8.19389700
8.49999967	-3.68971500	-7.38804100
8.69999966	-5.09534900	-6.97588500
8.89999965	-4.91941500	-6.92667200
9.09999964	-3.68971500	-6.92667200
9.29999962	-1.75689000	-6.92667200
9.49999961	0.17531990	-6.92667200
9.69999960	1.75689000	-6.92667200
9.89999959	2.45940000	-6.92667200
10.09999958	2.45940000	-6.92667200
10.29999956	1.75689000	-6.97588500
10.49999955	0.87844490	-7.33882900
10.69999954	0.00000000	-7.73868000
10.89999953	-0.52657480	-7.33882900
11.09999952	-0.87844490	-6.97588500
11.29999951	-0.87844490	-6.92667200
11.49999949	-0.70250980	-6.97588500
11.69999948	-0.35125490	-7.33882900
11.89999947	-0.17531990	-7.73868000
12.09999946	0.00000000	-7.33882900
12.29999945	0.00000000	-6.97588500
12.49999943	-0.17531990	-6.92667200
12.69999942	-0.17531990	-6.97588500
12.89999941	-0.17531990	-7.33882900
13.09999940	-0.17531990	-7.78789300
13.29999939	0.00000000	-7.74483200
13.49999937	-0.17531990	-7.78789300
13.69999936	0.00000000	-7.33882900
13.89999935	0.00000000	-6.97588500
14.09999934	0.00000000	-6.92667200
14.29999933	0.00000000	-6.92667200
14.49999932	0.00000000	-6.92667200
14.69999930	0.00000000	-6.92667200
14.89999929	0.00000000	-6.92667200
15.09999928	0.00000000	-6.92667200
15.29999927	0.00000000	-6.92667200
15.49999926	0.00000000	-6.97588500
15.69999924	0.00000000	-7.33882900
15.89999923	0.00000000	-7.78789300
16.09999922	0.00000000	-7.74483200
16.29999921	0.00000000	-7.78789300
16.49999920	0.00000000	-7.33882900
16.69999919	0.00000000	-6.97588500
16.89999917	0.00000000	-6.92667200
17.09999916	0.00000000	-6.92667200
17.29999915	0.00000000	-6.92667200
17.49999914	0.00000000	-6.92667200
17.69999913	0.00000000	-6.92667200
17.89999911	0.00000000	-6.92667200
18.09999910	0.00000000	-6.92667200
18.29999909	0.00000000	-6.92667200
18.49999908	0.00000000	-6.92667200
18.69999907	0.00000000	-6.92667200
18.89999905	0.00000000	-6.92667200
19.09999904	0.00000000	-6.92667200
19.29999903	0.00000000	-6.92667200
19.49999902	0.00000000	-6.92667200
19.69999901	0.00000000	-6.92667200
19.89999900	0.00000000	-6.92667200
20.09999898	0.00000000	-6.92667200
20.29999897	0.00000000	-6.92667200
20.49999896	0.00000000	-6.92667200
20.69999895	0.00000000	-6.92667200
20.89999894	0.00000000	-6.92667200
21.09999892	0.00000000	-6.92667200
21.29999891	0.00000000	-6.92667200
21.49999890	0.00000000	-6.92667200
21.69999889	0.00000000	-6.92667200
21.89999888	0.00000000	-6.92667200
22.09999886	0.00000000	-6.92667200
22.29999885	0.00000000	-6.92667200
22.49999884	0.00000000	-6.97588500
22.69999883	0.00000000	-7.38804100
22.89999882	0.00000000	-8.14468500
23.09999881	0.00000000	-8.19389700
23.29999879	0.00000000	-7.84325700
23.49999878	0.00000000	-8.19389700
23.69999877	0.00000000	-8.14468500
23.89999876	0.00000000	-7.43725300
24.09999875	0.00000000	-7.38804100
24.29999873	0.00000000	-7.68946800
24.49999872	0.00000000	-6.82824800
24.69999871	0.00000000	-5.24114100
24.89999870	0.00000000	-3.97391700
25.09999869	0.00000000	-3.56176100
25.29999867	0.00000000	-3.97391700
25.49999866	0.00000000	-5.29035400
25.69999865	0.00000000	-7.43725300
25.89999864	0.00000000	-10.39001000
26.09999863	0.00000000	-13.29355000
26.29999862	0.00000000	-15.02214000
26.49999860	0.00000000	-15.43430000
26.69999859	0.00000000	-14.51772000
26.89999858	0.00000000	-11.46038000
27.09999857	0.00000000	-6.41609200
27.29999856	0.00000000	-0.46136810
27.49999854	0.00000000	4.99507900
27.69999853	0.00000000	8.76599300
27.89999852	0.00000000	9.07972400
28.09999851	0.00000000	5.25344500
28.29999850	0.00000000	-2.43602300
28.49999848	0.00000000	-12.53076000
28.69999847	0.00000000	-22.71777000
28.89999846	0.00000000	-30.26575000
29.09999845	0.00000000	-33.56914000
29.29999844	0.00000000	-30.46875000
29.49999843	0.00000000	-20.78617000
29.69999841	0.00000000	-6.77903500
29.89999840	0.00000000	8.40920300
30.09999839	0.00000000	21.54897000
30.29999838	0.00000000	29.10310000
30.49999837	0.00000000	29.50295000
30.69999835	0.00000000	21.66585000
30.89999834	0.00000000	6.01624000
31.09999833	0.00000000	-14.66535000
31.29999832	0.00000000	-34.44267000
31.49999831	0.00000000	-48.50517000
31.69999829	0.00000000	-53.91240000
31.89999828	0.00000000	-49.16953000
32.09999827	0.00000000	-33.93208000
32.29999826	0.00000000	-12.02018000
32.49999825	0.00000000	10.85753000
32.69999824	0.00000000	29.95817000
32.89999822	0.00000000	41.33243000
33.09999821	0.00000000	42.09522000
33.29999820	0.00000000	31.09006000
33.49999819	0.00000000	10.80832000
33.69999818	0.00000000	-13.70571000
33.89999816	0.00000000	-36.98942000
34.09999815	0.00000000	-53.50639000
34.29999814	0.00000000	-59.82406000
34.49999813	0.00000000	-54.31225000
34.69999812	0.00000000	-37.80758000
34.89999810	0.00000000	-14.61614000
35.09999809	0.00000000	9.93479300
35.29999808	0.00000000	29.85974000
35.49999807	0.00000000	41.28322000
35.69999806	0.00000000	41.63386000
35.89999805	0.00000000	29.86589000
36.09999803	0.00000000	9.68257800
36.29999802	0.00000000	-13.24434000
36.49999801	0.00000000	-34.39346000
36.69999800	0.00000000	-49.12032000
36.89999799	0.00000000	-52.94660000
37.09999797	0.00000000	-45.49705000
37.29999796	0.00000000	-29.85974000
37.49999795	0.00000000	-9.97785300
37.69999794	0.00000000	9.88558000
37.89999793	0.00000000	24.66781000
38.09999791	0.00000000	31.04084000
38.29999790	0.00000000	27.67593000
38.49999789	0.00000000	15.49582000
38.69999788	0.00000000	-1.67938000
38.89999787	0.00000000	-18.59621000
39.09999786	0.00000000	-30.88090000
39.29999784	0.00000000	-36.42962000
39.49999783	0.00000000	-33.93208000
39.69999782	0.00000000	-24.76009000
39.89999781	0.00000000	-12.11860000
40.09999780	0.00000000	0.51673230
40.29999778	0.00000000	9.78715500
40.49999777	0.00000000	13.25049000
40.69999776	0.00000000	10.75910000
40.89999775	0.00000000	3.66633800
41.09999774	0.00000000	-6.01008800
41.29999772	0.00000000	-14.82529000
41.49999771	0.00000000	-20.78617000
41.69999770	0.00000000	-22.47170000
41.89999769	0.00000000	-19.61737000
42.09999768	0.00000000	-13.75492000
42.29999767	0.00000000	-7.02509800
42.49999765	0.00000000	-1.11343500
42.69999764	0.00000000	2.25147600
42.89999763	0.00000000	2.34990100
43.09999762	0.00000000	-0.14763780
43.29999761	0.00000000	-3.92470400
43.49999759	0.00000000	-8.14468500
43.69999758	0.00000000	-11.46038000
43.89999757	0.00000000	-12.78297000
44.09999756	0.00000000	-11.97096000
44.29999755	0.00000000	-9.97785300
44.49999753	0.00000000	-7.84325700
44.69999752	0.00000000	-6.66215500
44.89999751	0.00000000	-6.56988100
45.09999750	0.00000000	-7.78789300
45.29999749	0.00000000	-8.60605200
45.49999748	0.00000000	-9.06742000
45.69999746	0.00000000	-9.41806000
45.89999745	0.00000000	-8.50762700
46.09999744	0.00000000	-6.46530500
46.29999743	0.00000000	-3.97391700
46.49999742	0.00000000	-2.28838600
46.69999740	0.00000000	-1.87623000
46.89999739	0.00000000	-2.74360200
47.09999738	0.00000000	-5.29035400
47.29999737	0.00000000	-8.60605200
47.49999736	0.00000000	-11.60802000
47.69999734	0.00000000	-13.70571000
47.89999733	0.00000000	-14.56693000
48.09999732	0.00000000	-13.70571000
48.29999731	0.00000000	-11.60802000
48.49999730	0.00000000	-8.60605200
48.69999729	0.00000000	-5.29035400
48.89999727	0.00000000	-2.69439000
49.09999726	0.00000000	-1.41486200
49.29999725	0.00000000	-1.01501000
49.49999724	0.00000000	-2.28838600
49.69999723	0.00000000	-4.73056000
49.89999721	0.00000000	-6.87746000
50.09999720	0.00000000	-8.65526600
50.29999719	0.00000000	-10.34080000
50.49999718	0.00000000	-11.60802000
50.69999717	0.00000000	-12.06939000
50.89999715	0.00000000	-12.06939000
51.09999714	0.00000000	-11.60802000
51.29999713	0.00000000	-10.34080000
51.49999712	0.00000000	-8.65526600
51.69999711	0.00000000	-6.87746000
51.89999710	0.00000000	-4.77977300
52.09999708	0.00000000	-2.69439000
52.29999707	0.00000000	-1.87623000
52.49999706	0.00000000	-2.23917300
52.69999705	0.00000000	-3.56176100
52.89999704	0.00000000	-5.65329700
53.09999702	0.00000000	-8.24311000
53.29999701	0.00000000	-10.75295000
53.49999700	0.00000000	-12.88755000
53.69999699	0.00000000	-13.70571000
53.89999698	0.00000000	-13.29355000
54.09999696	0.00000000	-11.55881000
54.29999695	0.00000000	-8.60605200
54.49999694	0.00000000	-5.24114100
54.69999693	0.00000000	-2.28838600
54.89999692	0.00000000	-0.65821850
55.09999691	0.00000000	-1.01501000
55.29999689	0.00000000	-3.10039400
55.49999688	0.00000000	-5.65329700
55.69999687	0.00000000	-8.65526600
55.89999686	0.00000000	-11.60802000
56.09999685	0.00000000	-13.65650000
56.29999683	0.00000000	-14.10556000
56.49999682	0.00000000	-12.43233000
56.69999681	0.00000000	-9.92864100
56.89999680	0.00000000	-6.92667200
57.09999679	0.00000000	-4.02313000
57.29999677	0.00000000	-2.33759800
57.49999676	0.00000000	-2.33759800
57.69999675	0.00000000	-4.02313000
57.89999674	0.00000000	-6.92667200
58.09999673	0.00000000	-9.92864100
58.29999672	0.00000000	-12.48154000
58.49999670	0.00000000	-14.51772000
58.69999669	0.00000000	-14.46850000
58.89999668	0.00000000	-11.97096000
59.09999667	0.00000000	-8.24311000
59.29999666	0.00000000	-4.42913300
59.49999664	0.00000000	-1.87623000
59.69999663	0.00000000	-0.55979330
59.89999662	0.00000000	-0.60900590
60.09999661	0.00000000	-2.33759800
60.29999660	0.00000000	-5.75172200
60.49999658	0.00000000	-10.29158000
60.69999657	0.00000000	-14.05635000
60.89999656	0.00000000	-15.38509000
61.09999655	0.00000000	-15.02214000
61.29999654	0.00000000	-13.24434000
61.49999653	0.00000000	-9.87942800
61.69999651	0.00000000	-5.70251000
61.89999650	0.00000000	-2.33759800
62.09999649	0.00000000	-0.60900590
62.29999648	0.00000000	-0.55979330
62.49999647	0.00000000	-1.82701800
62.69999645	0.00000000	-3.97391700
62.89999644	0.00000000	-6.97588500
63.09999643	0.00000000	-10.29158000
63.29999642	0.00000000	-12.83834000
63.49999641	0.00000000	-13.70571000
63.69999639	0.00000000	-13.34276000
63.89999638	0.00000000	-12.06939000
64.09999637	0.00000000	-10.34080000
64.29999636	0.00000000	-8.19389700
64.49999635	0.00000000	-5.65329700
64.69999634	0.00000000	-3.61097400
64.89999632	0.00000000	-2.65132900
65.09999631	0.00000000	-2.63902500
65.29999630	0.00000000	-2.65132900
65.49999629	0.00000000	-3.61097400
65.69999628	0.00000000	-5.65329700
65.89999626	0.00000000	-8.24311000
66.09999625	0.00000000	-10.80217000
66.29999624	0.00000000	-13.34276000
66.49999623	0.00000000	-14.97293000
66.69999622	0.00000000	-15.02214000
66.89999620	0.00000000	-13.70571000
67.09999619	0.00000000	-11.15280000
67.29999618	0.00000000	-7.33882900
67.49999617	0.00000000	-3.56176100
67.69999616	0.00000000	-0.55979330
67.89999615	0.00000000	1.07037400
68.09999613	0.00000000	0.66437010
68.29999612	0.00000000	-1.82701800
68.49999611	0.00000000	-5.24114100
68.69999610	0.00000000	-9.11663300
68.89999609	0.00000000	-13.29355000
69.09999607	0.00000000	-16.25246000
69.29999606	0.00000000	-17.11983000
69.49999605	0.00000000	-16.30167000
69.69999604	0.00000000	-13.70571000
69.89999603	0.00000000	-9.92864100
70.09999601	0.00000000	-5.70251000
70.29999600	0.00000000	-2.28838600
70.49999599	0.00000000	-0.14763780
70.69999598	0.00000000	0.71358260
70.89999597	0.00000000	-0.14763780
71.09999596	0.00000000	-2.28838600
71.29999594	0.00000000	-5.70251000
71.49999593	0.00000000	-9.87942800
71.69999592	0.00000000	-13.24434000
71.89999591	0.00000000	-14.97293000
72.09999590	0.00000000	-15.02214000
72.29999588	0.00000000	-13.75492000
72.49999587	0.00000000	-11.55881000
72.69999586	0.00000000	-8.19389700
72.89999585	0.00000000	-4.37992100
73.09999584	0.00000000	-1.47022600
73.29999582	0.00000000	0.25221450
73.49999581	0.00000000	-0.19685040
73.69999580	0.00000000	-2.28838600
73.89999579	0.00000000	-5.70251000
74.09999578	0.00000000	-9.87942800
74.29999577	0.00000000	-13.24434000
74.49999575	0.00000000	-14.97293000
74.69999574	0.00000000	-14.97293000
74.89999573	0.00000000	-13.29355000
75.09999572	0.00000000	-10.29158000
75.29999571	0.00000000	-6.46530500
75.49999569	0.00000000	-2.28838600
75.69999568	0.00000000	0.61515740
75.89999567	0.00000000	1.07037400
76.09999566	0.00000000	-0.55979330
76.29999565	0.00000000	-3.56176100
76.49999563	0.00000000	-7.38804100
76.69999562	0.00000000	-11.65723000
76.89999561	0.00000000	-15.33587000
77.09999560	0.00000000	-17.00910000
77.29999559	0.00000000	-15.33587000
77.49999558	0.00000000	-11.60802000
77.69999556	0.00000000	-6.87746000
77.89999555	0.00000000	-1.92544300
78.09999554	0.00000000	1.47637800
78.29999553	0.00000000	1.94389800
78.49999552	0.00000000	0.71358260
78.69999550	0.00000000	-2.33759800
78.89999549	0.00000000	-6.97588500
79.09999548	0.00000000	-12.06939000
79.29999547	0.00000000	-16.70768000
79.49999546	0.00000000	-19.61737000
79.69999544	0.00000000	-19.61737000
79.89999543	0.00000000	-16.65846000
80.09999542	0.00000000	-11.60802000
80.29999541	0.00000000	-5.65329700
80.49999540	0.00000000	-0.14763780
80.69999539	0.00000000	4.07849400
80.89999537	0.00000000	5.65944900
81.09999536	0.00000000	3.61712600
81.29999535	0.00000000	-1.37180100
81.49999534	0.00000000	-6.92667200
81.69999533	0.00000000	-12.48154000
81.89999531	0.00000000	-17.56890000
82.09999530	0.00000000	-20.48474000
82.29999529	0.00000000	-20.93381000
82.49999528	0.00000000	-18.38706000
82.69999527	0.00000000	-13.75492000
82.89999525	0.00000000	-8.24311000
83.09999524	0.00000000	-2.70054100
83.29999523	0.00000000	1.53174200
83.49999522	0.00000000	4.12770700
83.69999521	0.00000000	4.48449800
83.89999520	0.00000000	2.39911400
84.09999518	0.00000000	-1.82701800
84.29999517	0.00000000	-6.92667200
84.49999516	0.00000000	-12.02018000
84.69999515	0.00000000	-16.34473000
84.89999514	0.00000000	-19.26058000
85.09999512	0.00000000	-20.52165000
85.29999511	0.00000000	-18.75000000
85.49999510	0.00000000	-14.61614000
85.69999509	0.00000000	-9.06742000
85.89999508	0.00000000	-3.56176100
86.09999506	0.00000000	1.11958700
86.29999505	0.00000000	4.07849400
86.49999504	0.00000000	4.53371000
86.69999503	0.00000000	2.80511800
86.89999502	0.00000000	-1.01501000
87.09999501	0.00000000	-6.51451700
87.29999499	0.00000000	-12.02018000
87.49999498	0.00000000	-16.70768000
87.69999497	0.00000000	-19.66658000
87.89999496	0.00000000	-20.07259000
88.09999495	0.00000000	-17.98105000
88.29999493	0.00000000	-13.75492000
88.49999492	0.00000000	-8.65526600
88.69999491	0.00000000	-3.56176100
88.89999490	0.00000000	0.66437010
89.09999489	0.00000000	2.75590500
89.29999487	0.00000000	2.39911400
89.49999486	0.00000000	-0.09842519
89.69999485	0.00000000	-3.51254900
89.89999484	0.00000000	-7.38804100
90.09999483	0.00000000	-11.60802000
90.29999482	0.00000000	-14.97293000
90.49999480	0.00000000	-16.65846000
90.69999479	0.00000000	-16.30167000
90.89999478	0.00000000	-14.16708000
91.09999477	0.00000000	-11.25123000
91.29999476	0.00000000	-7.79404500
91.49999474	0.00000000	-4.87819900
91.69999473	0.00000000	-2.69439000
91.89999472	0.00000000	-1.87623000
92.09999471	0.00000000	-2.23917300
92.29999470	0.00000000	-3.56176100
92.49999468	0.00000000	-5.65329700
92.69999467	0.00000000	-8.19389700
92.89999466	0.00000000	-10.29158000
93.09999465	0.00000000	-11.60802000
93.29999464	0.00000000	-12.02018000
93.49999463	0.00000000	-11.60802000
93.69999461	0.00000000	-10.34080000
93.89999460	0.00000000	-8.70447700
94.09999459	0.00000000	-7.43725300
94.29999458	0.00000000	-6.92667200
94.49999457	0.00000000	-6.46530500
94.69999455	0.00000000	-5.70251000
94.89999454	0.00000000	-5.70251000
95.09999453	0.00000000	-6.46530500
95.29999452	0.00000000	-6.87746000
95.49999451	0.00000000	-6.97588500
95.69999449	0.00000000	-7.38804100
95.89999448	0.00000000	-8.19389700
96.09999447	0.00000000	-8.60605200
96.29999446	0.00000000	-8.65526600
96.49999445	0.00000000	-8.70447700
96.69999444	0.00000000	-9.06742000
96.89999442	0.00000000	-9.41806000
97.09999441	-0.17531990	-8.65526600
97.29999440	0.00000000	-7.84325700
97.49999439	0.00000000	-7.78789300
97.69999438	0.00000000	-7.28961600
97.89999436	0.00000000	-6.56373000
98.09999435	0.00000000	-6.11466500
98.29999434	0.00000000	-6.51451700
98.49999433	0.00000000	-6.87746000
98.69999432	0.00000000	-6.97588500
98.89999430	0.00000000	-7.43725300
99.09999429	0.00000000	-8.65526600
99.29999428	0.00000000	-9.87942800
99.49999427	0.00000000	-10.34080000
99.69999426	0.00000000	-10.34080000
99.89999425	0.00000000	-9.92864100
100.09999423	0.00000000	-9.06742000
100.29999422	0.00000000	-8.24311000
100.49999421	0.00000000	-7.33882900
100.69999420	0.00000000	-6.51451700
100.89999419	0.00000000	-5.65329700
101.09999417	0.00000000	-5.29035400
101.29999416	0.00000000	-5.70251000
101.49999415	0.00000000	-6.97588500
101.69999414	0.00000000	-8.60605200
101.89999413	0.00000000	-9.87942800
102.09999411	0.00000000	-10.34080000
102.29999410	0.00000000	-10.39001000
102.49999409	0.00000000	-10.29158000
102.69999408	0.00000000	-9.47342500
102.89999407	0.00000000	-7.79404500
103.09999406	0.00000000	-6.56373000
103.29999404	0.00000000	-5.65329700
103.49999403	0.00000000	-5.29035400
103.69999402	0.00000000	-5.65329700
103.89999401	0.00000000	-6.56373000
104.09999400	0.00000000	-7.74483200
104.29999398	0.00000000	-9.06126900
104.49999397	0.00000000	-9.47957600
104.69999396	0.00000000	-9.97785300
104.89999395	0.00000000	-10.29158000
105.09999394	0.00000000	-9.87942800
105.29999392	0.00000000	-8.65526600
105.49999391	0.00000000	-7.38804100
105.69999390	0.00000000	-6.51451700
105.89999389	0.00000000	-5.65329700
106.09999388	0.00000000	-5.29035400
106.29999387	0.00000000	-5.70251000
106.49999385	0.00000000	-6.92667200
106.69999384	0.00000000	-8.14468500
106.89999383	0.00000000	-8.65526600
107.09999382	0.00000000	-9.11663300
107.29999381	0.00000000	-9.92864100
107.49999379	0.00000000	-10.29158000
107.69999378	0.00000000	-9.92864100
107.89999377	0.00000000	-9.06742000
108.09999376	0.00000000	-8.19389700
108.29999375	0.00000000	-6.92667200
108.49999374	0.00000000	-5.70251000
