Time	Channel A	Channel B
(us)	(V)	(mV)

-4.59999956	0.00000000	0.00000000
-4.39999957	0.00000000	0.00000000
-4.19999958	0.00000000	0.00000000
-3.99999959	0.00000000	0.00000000
-3.79999960	0.00000000	0.00000000
-3.59999962	0.00000000	0.00000000
-3.39999963	0.00000000	0.04921259
-3.19999964	0.00000000	0.41215550
-2.99999965	0.00000000	0.81200780
-2.79999966	0.00000000	0.41215550
-2.59999968	0.00000000	0.04921259
-2.39999969	0.00000000	0.00000000
-2.19999970	0.00000000	-0.04921259
-1.99999971	0.00000000	-0.41215550
-1.79999972	0.00000000	-0.81200780
-1.59999973	0.00000000	-0.41215550
-1.39999975	0.00000000	-0.04921259
-1.19999976	0.00000000	0.00000000
-0.99999977	0.00000000	0.00000000
-0.79999978	0.00000000	0.00000000
-0.59999979	0.00000000	0.00000000
-0.39999981	0.35125490	0.00000000
-0.19999982	0.70250980	0.00000000
0.00000017	0.87844490	0.00000000
0.20000016	1.05376500	0.00000000
0.40000015	0.70250980	0.00000000
0.60000013	0.17531990	0.00000000
0.80000012	-0.70250980	0.00000000
1.00000011	-1.75689000	0.00000000
1.20000010	-2.63533500	0.00000000
1.40000009	-2.81127000	0.00000000
1.60000008	-2.28408000	0.00000000
1.80000006	-0.87844490	0.00000000
2.00000005	1.05376500	0.00000000
2.20000004	3.16252500	0.00000000
2.40000003	4.74409400	0.00000000
2.60000002	5.27128500	0.00000000
2.80000000	4.56816000	0.00000000
2.99999999	2.28408000	0.00000000
3.19999998	-1.05376500	0.00000000
3.39999997	-4.39283900	0.00000000
3.59999996	-7.02817400	0.04921259
3.79999994	-8.08255400	0.46136810
3.99999993	-7.02817400	1.26722400
4.19999992	-4.04096900	1.67938000
4.39999991	0.17531990	1.67938000
4.59999990	4.39283900	1.26722400
4.79999989	7.90661900	0.41215550
4.99999987	9.48818900	-0.41215550
5.19999986	8.60974400	-1.26722400
5.39999985	5.44660400	-1.63016700
5.59999984	1.05376500	-1.26722400
5.79999983	-3.68971500	-0.46136810
5.99999981	-7.55536400	-0.04921259
6.19999980	-9.31225400	0.04921259
6.39999979	-8.78567900	0.41215550
6.59999978	-6.14972900	0.81200780
6.79999977	-2.28408000	0.41215550
6.99999975	2.10814500	0.04921259
7.19999974	5.62254000	0.00000000
7.39999973	7.55536400	0.00000000
7.59999972	7.37942900	0.00000000
7.79999971	5.44660400	0.00000000
7.99999970	2.28408000	0.00000000
8.19999968	-0.87844490	0.00000000
8.39999967	-3.51377900	0.00000000
8.59999966	-4.91941500	0.04921259
8.79999965	-5.09534900	0.41215550
8.99999964	-3.86565000	0.81200780
9.19999962	-1.93282500	0.41215550
9.39999961	0.00000000	0.04921259
9.59999960	1.58095500	0.00000000
9.79999959	2.45940000	0.00000000
9.99999958	2.45940000	0.00000000
10.19999956	1.75689000	0.00000000
10.39999955	0.87844490	0.00000000
10.59999954	0.00000000	0.00000000
10.79999953	-0.52657480	0.00000000
10.99999952	-0.87844490	0.00000000
11.19999951	-1.05376500	0.00000000
11.39999949	-0.70250980	0.00000000
11.59999948	-0.52657480	0.00000000
11.79999947	-0.17531990	0.00000000
11.99999946	0.00000000	0.00000000
12.19999945	0.00000000	0.00000000
12.39999943	-0.17531990	0.00000000
12.59999942	-0.17531990	0.00000000
12.79999941	-0.17531990	0.00000000
12.99999940	-0.17531990	0.00000000
13.19999939	-0.17531990	0.00000000
13.39999937	0.00000000	0.00000000
13.59999936	0.00000000	0.00000000
13.79999935	0.00000000	0.00000000
13.99999934	0.00000000	0.00000000
14.19999933	0.00000000	0.00000000
14.39999932	0.00000000	0.00000000
14.59999930	0.00000000	0.00000000
14.79999929	0.00000000	0.00000000
14.99999928	0.00000000	0.00000000
15.19999927	0.00000000	0.00000000
15.39999926	0.00000000	0.00000000
15.59999924	0.00000000	0.00000000
15.79999923	0.00000000	0.00000000
15.99999922	-0.17531990	0.00000000
16.19999921	0.00000000	0.00000000
16.39999920	-0.17531990	0.00000000
16.59999919	0.00000000	0.00000000
16.79999917	0.00000000	0.00000000
16.99999916	0.00000000	0.00000000
17.19999915	0.00000000	0.00000000
17.39999914	0.00000000	0.00000000
17.59999913	0.00000000	0.00000000
17.79999911	0.00000000	0.00000000
17.99999910	0.00000000	0.00000000
18.19999909	0.00000000	0.00000000
18.39999908	0.00000000	0.00000000
18.59999907	0.00000000	0.00000000
18.79999905	0.00000000	0.00000000
18.99999904	0.00000000	0.00000000
19.19999903	-0.17531990	0.00000000
19.39999902	0.00000000	0.00000000
19.59999901	0.00000000	0.00000000
19.79999900	0.00000000	0.00000000
19.99999898	0.00000000	0.00000000
20.19999897	0.00000000	0.00000000
20.39999896	0.00000000	0.00000000
20.59999895	0.00000000	0.00000000
20.79999894	0.00000000	0.00000000
20.99999892	0.00000000	0.00000000
21.19999891	0.00000000	0.00000000
21.39999890	0.00000000	0.00000000
21.59999889	0.00000000	0.00000000
21.79999888	0.00000000	0.00000000
21.99999886	0.00000000	0.00000000
22.19999885	0.00000000	0.00000000
22.39999884	0.00000000	0.00000000
22.59999883	0.00000000	0.00000000
22.79999882	0.00000000	-0.04921259
22.99999881	0.00000000	-0.46136810
23.19999879	0.00000000	-1.26722400
23.39999878	0.00000000	-1.67938000
23.59999877	0.00000000	-1.72859200
23.79999876	0.00000000	-1.67938000
23.99999875	0.00000000	-1.26722400
24.19999873	0.00000000	-0.41215550
24.39999872	0.00000000	0.46136810
24.59999871	0.00000000	1.72859200
24.79999870	0.00000000	2.95275600
24.99999869	0.00000000	3.41412400
25.19999867	0.00000000	3.36491100
25.39999866	0.00000000	2.49753900
25.59999865	0.00000000	0.36294290
25.79999864	0.00000000	-2.18996000
25.99999863	0.00000000	-5.19192900
26.19999862	0.00000000	-8.04626000
26.39999860	0.00000000	-9.27042300
26.59999859	0.00000000	-7.99704600
26.79999858	0.00000000	-4.58292300
26.99999857	0.00000000	0.55979330
27.19999856	0.00000000	6.87746000
27.39999854	0.00000000	12.78912000
27.59999853	0.00000000	16.56004000
27.79999852	0.00000000	17.32283000
27.99999851	0.00000000	13.85950000
28.19999850	0.00000000	6.21924200
28.39999848	0.00000000	-3.97391700
28.59999847	0.00000000	-14.97293000
28.79999846	0.00000000	-24.20029000
28.99999845	0.00000000	-28.74015000
29.19999844	0.00000000	-26.59326000
29.39999843	0.00000000	-17.63656000
29.59999841	0.00000000	-3.61712600
29.79999840	0.00000000	13.29355000
29.99999839	0.00000000	28.83858000
30.19999838	0.00000000	38.52116000
30.39999837	0.00000000	39.74532000
30.59999835	0.00000000	31.64370000
30.79999834	0.00000000	15.49582000
30.99999833	0.00000000	-5.65329700
31.19999832	0.00000000	-27.20226000
31.39999831	0.00000000	-43.67002000
31.59999829	0.00000000	-51.21186000
31.79999828	0.00000000	-47.28715000
31.99999827	0.00000000	-31.64370000
32.19999826	0.00000000	-8.00319800
32.39999825	0.00000000	17.83341000
32.59999824	0.00000000	40.30511000
32.79999822	0.00000000	54.62598000
32.99999821	0.00000000	57.11737000
33.19999820	0.00000000	46.47514000
33.39999819	0.00000000	24.91388000
33.59999818	0.00000000	-3.00196800
33.79999816	0.00000000	-30.46875000
33.99999815	0.00000000	-51.21186000
34.19999814	0.00000000	-60.53149000
34.39999813	0.00000000	-56.31151000
34.59999812	0.00000000	-39.79454000
34.79999810	0.00000000	-14.37008000
34.99999809	0.00000000	14.37008000
35.19999808	0.00000000	39.69611000
35.39999807	0.00000000	55.38877000
35.59999806	0.00000000	57.99089000
35.79999805	0.00000000	47.84694000
35.99999803	0.00000000	27.10384000
36.19999802	0.00000000	0.51058070
36.39999801	0.00000000	-25.27682000
36.59999800	0.00000000	-44.33440000
36.79999799	0.00000000	-52.38681000
36.99999797	0.00000000	-47.84694000
37.19999796	0.00000000	-32.66486000
37.39999795	0.00000000	-11.10359000
37.59999794	0.00000000	12.13091000
37.79999793	0.00000000	31.13927000
37.99999791	0.00000000	41.33243000
38.19999790	0.00000000	41.01870000
38.39999789	0.00000000	30.93012000
38.59999788	0.00000000	14.51772000
38.79999787	0.00000000	-4.07849400
38.99999786	0.00000000	-20.12795000
39.19999784	0.00000000	-29.90895000
39.39999783	0.00000000	-31.64370000
39.59999782	0.00000000	-25.37524000
39.79999781	0.00000000	-13.24434000
39.99999780	0.00000000	0.61515740
40.19999778	0.00000000	12.08169000
40.39999777	0.00000000	18.90994000
40.59999776	0.00000000	20.22638000
40.79999775	0.00000000	16.04946000
40.99999774	0.00000000	8.15083600
41.19999772	0.00000000	-0.71358260
41.39999771	0.00000000	-7.84940900
41.59999770	0.00000000	-11.71875000
41.79999769	0.00000000	-11.36196000
41.99999768	0.00000000	-8.09547100
42.19999767	0.00000000	-3.46333600
42.39999765	0.00000000	1.16879900
42.59999764	0.00000000	4.53371000
42.79999763	0.00000000	5.85629900
42.99999762	0.00000000	5.04429100
43.19999761	0.00000000	3.00196800
43.39999759	0.00000000	0.51058070
43.59999758	0.00000000	-1.11958700
43.79999757	0.00000000	-1.16879900
43.99999756	0.00000000	0.00000000
44.19999755	0.00000000	1.21801200
44.39999753	0.00000000	1.63016700
44.59999752	0.00000000	1.21801200
44.79999751	0.00000000	-0.04921259
44.99999750	0.00000000	-1.77780500
45.19999749	0.00000000	-3.82627900
45.39999748	0.00000000	-5.40108300
45.59999746	0.00000000	-4.53371000
45.79999745	0.00000000	-1.67938000
45.99999744	0.00000000	1.67938000
46.19999743	0.00000000	4.68134800
46.39999742	0.00000000	6.77903500
46.59999740	0.00000000	7.59104300
46.79999739	0.00000000	6.26845500
46.99999738	0.00000000	2.95275600
47.19999737	0.00000000	-1.26722400
47.39999736	0.00000000	-5.09350300
47.59999734	0.00000000	-8.04626000
47.79999733	0.00000000	-9.27042300
47.99999732	-0.17531990	-7.99704600
48.19999731	0.00000000	-4.68134800
48.39999730	0.00000000	-0.46136810
48.59999729	0.00000000	3.36491100
48.79999727	0.00000000	6.36687900
48.99999726	0.00000000	7.99704600
49.19999725	0.00000000	7.64025500
49.39999724	0.00000000	5.55487200
49.59999723	0.00000000	3.00196800
49.79999721	0.00000000	0.00000000
49.99999720	0.00000000	-2.95275600
50.19999719	0.00000000	-5.09350300
50.39999718	0.00000000	-6.36687900
50.59999717	0.00000000	-6.36687900
50.79999715	-0.17531990	-5.14271600
50.99999714	0.00000000	-3.46333600
51.19999713	-0.17531990	-1.67938000
51.39999712	0.00000000	0.41215550
51.59999711	0.00000000	2.54675200
51.79999710	0.00000000	3.82627900
51.99999708	0.00000000	4.68134800
52.19999707	0.00000000	4.63213500
52.39999706	0.00000000	3.41412400
52.59999705	0.00000000	1.72859200
52.79999704	0.00000000	-0.04921259
52.99999702	0.00000000	-2.14074800
53.19999701	0.00000000	-4.27534400
53.39999700	0.00000000	-5.50565900
53.59999699	0.00000000	-5.90551100
53.79999698	0.00000000	-4.63213500
53.99999696	0.00000000	-2.14074800
54.19999695	0.00000000	0.41215550
54.39999694	0.00000000	2.95275600
54.59999693	0.00000000	4.63213500
54.79999692	0.00000000	5.04429100
54.99999691	0.00000000	4.22613100
55.19999689	0.00000000	2.09153500
55.39999688	0.00000000	-0.41215550
55.59999687	0.00000000	-2.95275600
55.79999686	0.00000000	-4.63213500
55.99999685	0.00000000	-5.09350300
56.19999683	0.00000000	-4.63213500
56.39999682	0.00000000	-2.90354300
56.59999681	0.00000000	0.00000000
56.79999680	0.00000000	2.90354300
56.99999679	0.00000000	4.58292300
57.19999677	0.00000000	4.63213500
57.39999676	0.00000000	3.41412400
57.59999675	0.00000000	1.67938000
57.79999674	0.00000000	-0.46136810
57.99999673	0.00000000	-3.00196800
58.19999672	0.00000000	-5.04429100
58.39999670	0.00000000	-5.85629900
58.59999669	0.00000000	-4.58292300
58.79999668	0.00000000	-1.72859200
58.99999667	0.00000000	1.27337600
59.19999666	0.00000000	3.82627900
59.39999664	0.00000000	5.91166300
59.59999663	0.00000000	6.31766700
59.79999662	0.00000000	5.04429100
59.99999661	0.00000000	2.49753900
60.19999660	0.00000000	-1.26722400
60.39999658	0.00000000	-4.63213500
60.59999657	0.00000000	-6.77903500
60.79999656	0.00000000	-7.59104300
60.99999655	0.00000000	-6.31766700
61.19999654	0.00000000	-3.41412400
61.39999653	0.00000000	-0.04921259
61.59999651	0.00000000	2.95275600
61.79999650	0.00000000	5.09350300
61.99999649	0.00000000	6.36687900
62.19999648	0.00000000	6.31766700
62.39999647	0.00000000	4.63213500
62.59999645	0.00000000	1.72859200
62.79999644	0.00000000	-1.22416300
62.99999643	0.00000000	-3.36491100
63.19999642	0.00000000	-4.68134800
63.39999641	0.00000000	-5.09350300
63.59999639	0.00000000	-4.68134800
63.79999638	0.00000000	-3.46333600
63.99999637	0.00000000	-2.18996000
64.19999636	0.00000000	-1.26722400
64.39999635	0.00000000	0.04921259
64.59999634	0.00000000	1.72859200
64.79999632	0.00000000	3.41412400
64.99999631	0.00000000	4.68134800
65.19999630	0.00000000	5.09350300
65.39999629	0.00000000	4.68134800
65.59999628	0.00000000	3.36491100
65.79999626	0.00000000	1.22416300
65.99999625	0.00000000	-1.72859200
66.19999624	0.00000000	-4.73056000
66.39999623	0.00000000	-7.24040300
66.59999622	0.00000000	-8.86441900
66.79999620	0.00000000	-7.99704600
66.99999619	0.00000000	-5.09350300
67.19999618	0.00000000	-1.21801200
67.39999617	0.00000000	3.41412400
67.59999616	0.00000000	7.64025500
67.79999615	0.00000000	10.19316000
67.99999613	-0.17531990	11.00517000
68.19999612	0.00000000	9.27042300
68.39999611	0.00000000	5.04429100
68.59999610	0.00000000	-0.46136810
68.79999609	0.00000000	-6.36687900
68.99999607	0.00000000	-11.00517000
69.19999606	0.00000000	-13.09670000
69.39999605	0.00000000	-12.27854000
69.59999604	0.00000000	-8.45841400
69.79999603	0.00000000	-3.00196800
69.99999601	0.00000000	2.95275600
70.19999600	0.00000000	7.99704600
70.39999599	0.00000000	11.00517000
70.59999598	0.00000000	11.46038000
70.79999597	0.00000000	9.73179100
70.99999596	0.00000000	5.91166300
71.19999594	0.00000000	0.46136810
71.39999593	0.00000000	-4.63213500
71.59999592	0.00000000	-8.50762700
71.79999591	0.00000000	-11.00517000
71.99999590	0.00000000	-11.00517000
72.19999588	0.00000000	-8.50762700
72.39999587	0.00000000	-4.68134800
72.59999586	0.00000000	0.00000000
72.79999585	-0.17531990	4.63213500
72.99999584	0.00000000	7.99704600
73.19999582	0.00000000	9.31963500
73.39999581	0.00000000	8.45841400
73.59999580	0.00000000	5.90551100
73.79999579	0.00000000	1.67938000
73.99999578	0.00000000	-2.95275600
74.19999577	0.00000000	-6.77903500
74.39999575	0.00000000	-9.32578700
74.59999574	0.00000000	-9.68257800
74.79999573	0.00000000	-7.64025500
74.99999572	0.00000000	-3.82627900
75.19999571	0.00000000	0.41215550
75.39999569	0.00000000	4.63213500
75.59999568	0.00000000	7.54183000
75.79999567	0.00000000	7.99704600
75.99999566	0.00000000	6.31766700
76.19999565	0.00000000	2.95275600
76.39999563	0.00000000	-1.31643700
76.59999562	0.00000000	-5.50565900
76.79999561	0.00000000	-8.91363100
76.99999560	0.00000000	-10.09473000
77.19999559	0.00000000	-8.86441900
77.39999558	0.00000000	-5.04429100
77.59999556	0.00000000	0.00000000
77.79999555	0.00000000	5.09350300
77.99999554	-0.17531990	9.31963500
78.19999553	0.00000000	11.41117000
78.39999552	0.00000000	10.95595000
78.59999550	0.00000000	7.54183000
78.79999549	0.00000000	1.67938000
78.99999548	0.00000000	-4.63828700
79.19999547	0.00000000	-9.73179100
79.39999546	0.00000000	-12.73991000
79.59999544	0.00000000	-13.09670000
79.79999543	0.00000000	-10.54380000
79.99999542	0.00000000	-5.04429100
80.19999541	0.00000000	1.67938000
80.39999540	0.00000000	8.04626000
80.59999539	0.00000000	12.68455000
80.79999537	0.00000000	14.37008000
80.99999536	0.00000000	12.73376000
81.19999535	0.00000000	8.45841400
81.39999534	0.00000000	2.49753900
81.59999533	0.00000000	-4.68134800
81.79999531	0.00000000	-11.00517000
81.99999530	0.00000000	-14.82529000
82.19999529	0.00000000	-15.69267000
82.39999528	0.00000000	-13.14591000
82.59999527	0.00000000	-8.09547100
82.79999525	0.00000000	-1.72859200
82.99999524	0.00000000	4.68750000
83.19999523	0.00000000	10.19316000
83.39999522	0.00000000	13.95792000
83.59999521	0.00000000	14.37008000
83.79999520	0.00000000	11.50960000
83.99999518	0.00000000	6.82824800
84.19999517	0.00000000	1.22416300
84.39999516	0.00000000	-5.14271600
84.59999515	0.00000000	-11.00517000
84.79999514	0.00000000	-14.41929000
84.99999512	0.00000000	-14.87451000
85.19999511	0.00000000	-12.73376000
85.39999510	0.00000000	-8.04626000
85.59999509	0.00000000	-1.72859200
85.79999508	0.00000000	4.63828700
85.99999506	0.00000000	9.78100300
86.19999505	0.00000000	13.19513000
86.39999504	0.00000000	14.41929000
86.59999503	0.00000000	12.68455000
86.79999502	0.00000000	8.04626000
86.99999501	0.00000000	1.67938000
87.19999499	0.00000000	-5.09350300
87.39999498	0.00000000	-11.00517000
87.59999497	0.00000000	-14.41929000
87.79999496	0.00000000	-14.87451000
87.99999495	0.00000000	-12.73376000
88.19999493	0.00000000	-8.04626000
88.39999492	0.00000000	-1.72859200
88.59999491	0.00000000	4.63828700
88.79999490	0.00000000	9.78100300
88.99999489	0.00000000	13.14591000
89.19999487	0.00000000	13.95792000
89.39999486	0.00000000	11.41117000
89.59999485	0.00000000	6.41609200
89.79999484	0.00000000	0.46136810
89.99999483	0.00000000	-5.09350300
90.19999482	0.00000000	-9.73179100
90.39999480	0.00000000	-12.27854000
90.59999479	0.00000000	-11.87254000
90.79999478	0.00000000	-9.36884800
90.99999477	0.00000000	-5.09350300
91.19999476	0.00000000	-0.04921259
91.39999474	0.00000000	4.63213500
91.59999473	0.00000000	7.99704600
91.79999472	0.00000000	9.27042300
91.99999471	0.00000000	8.04626000
92.19999470	0.00000000	5.14271600
92.39999468	0.00000000	1.72859200
92.59999467	0.00000000	-1.67938000
92.79999466	0.00000000	-4.63213500
92.99999465	0.00000000	-6.36687900
93.19999464	0.00000000	-6.82824800
93.39999463	0.00000000	-6.36687900
93.59999461	0.00000000	-4.68134800
93.79999460	0.00000000	-2.18996000
93.99999459	0.00000000	-0.04921259
94.19999458	0.00000000	1.67938000
94.39999457	0.00000000	2.95275600
94.59999455	0.00000000	3.36491100
94.79999454	0.00000000	2.95275600
94.99999453	0.00000000	1.72859200
95.19999452	0.00000000	0.46136810
95.39999451	0.00000000	-0.41215550
95.59999449	0.00000000	-1.26722400
95.79999448	0.00000000	-1.67938000
95.99999447	0.00000000	-1.77780500
96.19999446	0.00000000	-2.14074800
96.39999445	0.00000000	-2.54060000
96.59999444	0.00000000	-2.09153500
96.79999442	0.00000000	-1.31643700
96.99999441	0.00000000	-0.46136810
97.19999440	0.00000000	0.00000000
97.39999439	0.00000000	0.46136810
97.59999438	0.00000000	1.26722400
97.79999436	0.00000000	1.63016700
97.99999435	0.00000000	1.26722400
98.19999434	0.00000000	0.46136810
98.39999433	0.00000000	0.00000000
98.59999432	0.00000000	-0.46136810
98.79999430	0.00000000	-1.26722400
98.99999429	0.00000000	-1.72859200
99.19999428	0.00000000	-2.14074800
99.39999427	0.00000000	-2.54060000
99.59999426	0.00000000	-2.14074800
99.79999425	0.00000000	-1.72859200
99.99999423	0.00000000	-1.21801200
100.19999422	0.00000000	0.00000000
100.39999421	0.00000000	1.21801200
100.59999420	0.00000000	1.67938000
100.79999419	0.00000000	1.72859200
100.99999417	0.00000000	1.67938000
101.19999416	0.00000000	1.21801200
101.39999415	0.00000000	0.00000000
101.59999414	0.00000000	-1.26722400
101.79999413	0.00000000	-2.14074800
101.99999411	0.00000000	-3.00196800
102.19999410	0.00000000	-3.36491100
102.39999409	0.00000000	-3.00196800
102.59999408	0.00000000	-2.14074800
102.79999407	0.00000000	-1.26722400
102.99999406	0.00000000	0.00000000
103.19999404	0.00000000	1.21801200
103.39999403	0.00000000	1.67938000
103.59999402	-0.17531990	1.67938000
103.79999401	0.00000000	1.26722400
103.99999400	0.00000000	0.41215550
104.19999398	0.00000000	-0.46136810
104.39999397	0.00000000	-1.72859200
104.59999396	0.00000000	-2.90354300
104.79999395	0.00000000	-2.95275600
104.99999394	0.00000000	-2.14074800
105.19999392	0.00000000	-1.31643700
105.39999391	0.00000000	-0.41215550
105.59999390	0.00000000	0.41215550
105.79999389	0.00000000	1.26722400
105.99999388	0.00000000	1.67938000
106.19999387	0.00000000	1.67938000
106.39999385	0.00000000	1.21801200
106.59999384	0.00000000	0.00000000
106.79999383	0.00000000	-1.26722400
106.99999382	0.00000000	-2.14074800
107.19999381	0.00000000	-3.00196800
107.39999379	0.00000000	-3.36491100
107.59999378	0.00000000	-2.95275600
107.79999377	0.00000000	-1.67938000
107.99999376	0.00000000	-0.04921259
108.19999375	0.00000000	1.26722400
108.39999374	0.00000000	2.09153500
108.59999372	0.00000000	2.54060000
108.79999371	0.00000000	2.09153500
108.99999370	0.00000000	1.26722400
109.19999369	-0.17531990	-0.04921259
109.39999368	0.00000000	-1.67938000
109.59999366	0.00000000	-3.00196800
109.79999365	0.00000000	-3.82627900
109.99999364	0.00000000	-4.22613100
110.19999363	0.00000000	-3.36491100
