Time	Channel A	Channel B
(us)	(V)	(mV)

-4.59999956	0.00000000	-6.92667200
-4.39999957	0.00000000	-6.92667200
-4.19999958	0.00000000	-6.97588500
-3.99999959	0.00000000	-7.33882900
-3.79999960	0.00000000	-7.73868000
-3.59999962	0.00000000	-7.33882900
-3.39999963	0.00000000	-6.97588500
-3.19999964	0.00000000	-6.92667200
-2.99999965	0.00000000	-6.92667200
-2.79999966	0.00000000	-6.92667200
-2.59999968	0.00000000	-6.92667200
-2.39999969	0.00000000	-6.92667200
-2.19999970	0.00000000	-6.92667200
-1.99999971	0.00000000	-6.92667200
-1.79999972	0.00000000	-6.92667200
-1.59999973	0.00000000	-6.92667200
-1.39999975	0.00000000	-6.92667200
-1.19999976	0.00000000	-6.92667200
-0.99999977	0.00000000	-6.92667200
-0.79999978	0.00000000	-6.92667200
-0.59999979	0.00000000	-6.92667200
-0.39999981	0.17531990	-6.92667200
-0.19999982	0.52657480	-6.92667200
0.00000017	0.87844490	-6.92667200
0.20000016	1.05376500	-6.92667200
0.40000015	0.87844490	-6.92667200
0.60000013	0.52657480	-6.97588500
0.80000012	-0.17531990	-7.33882900
1.00000011	-1.22970000	-7.73868000
1.20000010	-2.10814500	-7.33882900
1.40000009	-2.81127000	-6.97588500
1.60000008	-2.63533500	-6.92667200
1.80000006	-1.75689000	-6.92667200
2.00000005	-0.17531990	-6.92667200
2.20000004	1.93282500	-6.92667200
2.40000003	3.86565000	-6.97588500
2.60000002	5.09534900	-7.38804100
2.80000000	5.27128500	-8.19389700
2.99999999	3.68971500	-8.60605200
3.19999998	1.05376500	-8.65526600
3.39999997	-2.28408000	-8.60605200
3.59999996	-5.44660400	-8.19389700
3.79999994	-7.55536400	-7.38804100
3.99999993	-7.90661900	-6.97588500
4.19999992	-6.14972900	-6.92667200
4.39999991	-2.63533500	-6.92667200
4.59999990	1.75689000	-6.92667200
4.79999989	5.97379400	-7.02509800
4.99999987	8.78567900	-7.74483200
5.19999986	9.48818900	-8.59990100
5.39999985	7.73129900	-8.20620100
5.59999984	4.04096900	-8.29232200
5.79999983	-0.70250980	-8.55684000
5.99999981	-5.27128500	-8.19389700
6.19999980	-8.43380900	-7.38804100
6.39999979	-9.48818900	-6.97588500
6.59999978	-8.08255400	-6.92667200
6.79999977	-4.74409400	-6.92667200
6.99999975	-0.52657480	-6.92667200
7.19999974	3.68971500	-6.92667200
7.39999973	6.67691900	-6.97588500
7.59999972	7.73129900	-7.38804100
7.79999971	6.85223900	-8.19389700
7.99999970	4.39283900	-8.60605200
8.19999968	1.05376500	-8.60605200
8.39999967	-1.93282500	-8.19389700
8.59999966	-4.21690500	-7.38804100
8.79999965	-5.09534900	-6.97588500
8.99999964	-4.74409400	-6.92667200
9.19999962	-3.16252500	-6.92667200
9.39999961	-1.22970000	-6.92667200
9.59999960	0.70250980	-6.92667200
9.79999959	1.93282500	-6.92667200
9.99999958	2.45940000	-6.92667200
10.19999956	2.28408000	-6.97588500
10.39999955	1.58095500	-7.38804100
10.59999954	0.52657480	-8.19389700
10.79999953	-0.17531990	-8.55684000
10.99999952	-0.70250980	-8.19389700
11.19999951	-0.87844490	-7.38804100
11.39999949	-0.87844490	-6.97588500
11.59999948	-0.70250980	-6.92667200
11.79999947	-0.35125490	-6.92667200
11.99999946	0.00000000	-6.92667200
12.19999945	0.00000000	-6.92667200
12.39999943	0.00000000	-6.92667200
12.59999942	0.00000000	-6.92667200
12.79999941	0.00000000	-6.92667200
12.99999940	-0.17531990	-6.92667200
13.19999939	-0.17531990	-6.92667200
13.39999937	-0.17531990	-6.97588500
13.59999936	0.00000000	-7.33882900
13.79999935	0.00000000	-7.73868000
13.99999934	0.00000000	-7.33882900
14.19999933	0.00000000	-6.97588500
14.39999932	0.00000000	-6.92667200
14.59999930	0.00000000	-6.92667200
14.79999929	0.00000000	-6.97588500
14.99999928	0.00000000	-7.33882900
15.19999927	0.00000000	-7.73868000
15.39999926	0.00000000	-7.33882900
15.59999924	0.00000000	-6.97588500
15.79999923	0.00000000	-6.92667200
15.99999922	0.00000000	-6.92667200
16.19999921	0.00000000	-6.92667200
16.39999920	0.00000000	-6.97588500
16.59999919	0.00000000	-7.33882900
16.79999917	0.00000000	-7.73868000
16.99999916	0.00000000	-7.33882900
17.19999915	0.00000000	-6.97588500
17.39999914	0.00000000	-6.92667200
17.59999913	0.00000000	-6.92667200
17.79999911	0.00000000	-6.92667200
17.99999910	0.00000000	-6.92667200
18.19999909	0.00000000	-6.92667200
18.39999908	0.00000000	-6.92667200
18.59999907	0.00000000	-6.92667200
18.79999905	0.00000000	-6.92667200
18.99999904	0.00000000	-6.92667200
19.19999903	0.00000000	-6.97588500
19.39999902	0.00000000	-7.33882900
19.59999901	0.00000000	-7.73868000
19.79999900	0.00000000	-7.38804100
19.99999898	0.00000000	-7.33882900
20.19999897	0.00000000	-7.32652500
20.39999896	0.00000000	-6.52066900
20.59999895	0.00000000	-6.56373000
20.79999894	0.00000000	-6.87746000
20.99999892	0.00000000	-6.92667200
21.19999891	0.00000000	-6.92667200
21.39999890	0.00000000	-6.92667200
21.59999889	0.00000000	-6.97588500
21.79999888	0.00000000	-7.38804100
21.99999886	0.00000000	-8.19389700
22.19999885	0.00000000	-8.55684000
22.39999884	0.00000000	-8.24311000
22.59999883	0.00000000	-7.84325700
22.79999882	0.00000000	-8.24311000
22.99999881	0.00000000	-8.60605200
23.19999879	0.00000000	-8.65526600
23.39999878	0.00000000	-8.65526600
23.59999877	0.00000000	-8.65526600
23.79999876	0.00000000	-8.65526600
23.99999875	0.00000000	-8.60605200
24.19999873	0.00000000	-8.14468500
24.39999872	0.00000000	-6.92667200
24.59999871	0.00000000	-5.65329700
24.79999870	0.00000000	-4.77977300
24.99999869	0.00000000	-3.92470400
25.19999867	0.00000000	-3.56176100
25.39999866	0.00000000	-4.02313000
25.59999865	0.00000000	-5.70251000
25.79999864	0.00000000	-8.24311000
25.99999863	0.00000000	-10.85138000
26.19999862	0.00000000	-13.80413000
26.39999860	0.00000000	-16.20325000
26.59999859	0.00000000	-16.20325000
26.79999858	0.00000000	-13.70571000
26.99999857	0.00000000	-9.83021600
27.19999856	0.00000000	-4.63828700
27.39999854	0.00000000	1.67938000
27.59999853	0.00000000	7.49261800
27.79999852	0.00000000	10.39616000
27.99999851	0.00000000	9.12278500
28.19999850	0.00000000	3.98006900
28.39999848	0.00000000	-4.57677100
28.59999847	0.00000000	-15.53273000
28.79999846	0.00000000	-26.08268000
28.99999845	0.00000000	-33.21850000
29.19999844	0.00000000	-35.25467000
29.39999843	0.00000000	-30.51796000
29.59999841	0.00000000	-19.51279000
29.79999840	0.00000000	-4.63828700
29.99999839	0.00000000	11.41732000
30.19999838	0.00000000	24.86466000
30.39999837	0.00000000	31.59449000
30.59999835	0.00000000	29.81053000
30.79999834	0.00000000	19.16216000
30.99999833	0.00000000	0.92273620
31.19999832	0.00000000	-20.58317000
31.39999831	0.00000000	-40.50196000
31.59999829	0.00000000	-53.96161000
31.79999828	0.00000000	-57.67716000
31.99999827	0.00000000	-49.57554000
32.19999826	0.00000000	-31.02854000
32.39999825	0.00000000	-6.87746000
32.59999824	0.00000000	17.73499000
32.79999822	0.00000000	38.01673000
32.99999821	0.00000000	48.87426000
33.19999820	0.00000000	46.77657000
33.39999819	0.00000000	31.95743000
33.59999818	0.00000000	8.25541300
33.79999816	0.00000000	-19.66658000
33.99999815	0.00000000	-44.99261000
34.19999814	0.00000000	-61.55265000
34.39999813	0.00000000	-66.24015000
34.59999812	0.00000000	-58.13853000
34.79999810	0.00000000	-38.61958000
34.99999809	0.00000000	-11.61417000
35.19999808	0.00000000	16.25861000
35.39999807	0.00000000	37.86909000
35.59999806	0.00000000	48.92347000
35.79999805	0.00000000	47.18872000
35.99999803	0.00000000	32.86786000
36.19999802	0.00000000	9.63336600
36.39999801	0.00000000	-16.56004000
36.59999800	0.00000000	-39.84375000
36.79999799	0.00000000	-54.67519000
36.99999797	0.00000000	-58.13853000
37.19999796	0.00000000	-50.13533000
37.39999795	0.00000000	-32.81250000
37.59999794	0.00000000	-10.43922000
37.79999793	0.00000000	11.52190000
37.99999791	0.00000000	27.62672000
38.19999790	0.00000000	34.45497000
38.39999789	0.00000000	31.09006000
38.59999788	0.00000000	18.49778000
38.79999787	0.00000000	0.41215550
38.99999786	0.00000000	-17.73499000
39.19999784	0.00000000	-31.74212000
39.39999783	0.00000000	-38.52116000
39.59999782	0.00000000	-36.94020000
39.79999781	0.00000000	-28.17421000
39.99999780	0.00000000	-15.58194000
40.19999778	0.00000000	-2.89739200
40.39999777	0.00000000	6.83439900
40.59999776	0.00000000	11.57111000
40.79999775	0.00000000	10.75910000
40.99999774	0.00000000	5.35187000
41.19999772	0.00000000	-3.00196800
41.39999771	0.00000000	-11.00517000
41.59999770	0.00000000	-16.56004000
41.79999769	0.00000000	-19.10679000
41.99999768	0.00000000	-17.88263000
42.19999767	0.00000000	-13.80413000
42.39999765	0.00000000	-9.16584600
42.59999764	0.00000000	-5.33956700
42.79999763	0.00000000	-2.79281500
42.99999762	0.00000000	-2.38681100
43.19999761	0.00000000	-3.97391700
43.39999759	0.00000000	-6.41609200
43.59999758	0.00000000	-8.09547100
43.79999757	0.00000000	-8.55684000
43.99999756	0.00000000	-8.14468500
44.19999755	0.00000000	-6.92667200
44.39999753	0.00000000	-5.75172200
44.59999752	0.00000000	-5.75172200
44.79999751	0.00000000	-6.97588500
44.99999750	0.00000000	-8.65526600
45.19999749	0.00000000	-10.39001000
45.39999748	0.00000000	-12.02018000
45.59999746	0.00000000	-12.83218000
45.79999745	0.00000000	-11.92175000
45.99999744	0.00000000	-9.41806000
46.19999743	0.00000000	-5.60408400
46.39999742	0.00000000	-1.87623000
46.59999740	0.00000000	0.66437010
46.79999739	0.00000000	1.07037400
46.99999738	0.00000000	-0.60900590
47.19999737	0.00000000	-4.02313000
47.39999736	0.00000000	-8.65526600
47.59999734	0.00000000	-13.29355000
47.79999733	0.00000000	-16.65846000
47.99999732	0.00000000	-17.88263000
48.19999731	0.00000000	-16.24631000
48.39999730	0.00000000	-12.48154000
48.59999729	0.00000000	-8.24311000
48.79999727	0.00000000	-3.97391700
48.99999726	0.00000000	-0.60900590
49.19999725	0.00000000	1.07037400
49.39999724	0.00000000	0.71358260
49.59999723	0.00000000	-1.42101400
49.79999721	0.00000000	-4.33070900
49.99999720	0.00000000	-7.78789300
50.19999719	0.00000000	-10.75295000
50.39999718	0.00000000	-13.29355000
50.59999717	0.00000000	-14.51772000
50.79999715	0.00000000	-13.75492000
50.99999714	0.00000000	-12.11860000
51.19999713	0.00000000	-10.34080000
51.39999712	0.00000000	-8.19389700
51.59999711	0.00000000	-5.65329700
51.79999710	0.00000000	-3.56176100
51.99999708	0.00000000	-2.23917300
52.19999707	0.00000000	-1.82701800
52.39999706	0.00000000	-2.23917300
52.59999705	0.00000000	-3.56176100
52.79999704	0.00000000	-5.65329700
52.99999702	0.00000000	-8.14468500
53.19999701	0.00000000	-9.92864100
53.39999700	0.00000000	-11.25738000
53.59999699	0.00000000	-12.83834000
53.79999698	0.00000000	-12.78912000
53.99999696	0.00000000	-10.75295000
54.19999695	0.00000000	-8.24311000
54.39999694	0.00000000	-5.65329700
54.59999693	0.00000000	-3.56176100
54.79999692	0.00000000	-2.28838600
54.99999691	0.00000000	-2.28838600
55.19999689	0.00000000	-3.56176100
55.39999688	0.00000000	-5.65329700
55.59999687	0.00000000	-8.19389700
55.79999686	0.00000000	-10.29158000
55.99999685	0.00000000	-11.60802000
56.19999683	0.00000000	-11.97096000
56.39999682	0.00000000	-11.10359000
56.59999681	0.00000000	-8.60605200
56.79999680	0.00000000	-5.70251000
56.99999679	0.00000000	-3.56176100
57.19999677	0.00000000	-2.28838600
57.39999676	0.00000000	-2.33759800
57.59999675	0.00000000	-4.02313000
57.79999674	0.00000000	-6.92667200
57.99999673	0.00000000	-9.92864100
58.19999672	0.00000000	-12.43233000
58.39999670	0.00000000	-14.10556000
58.59999669	0.00000000	-13.70571000
58.79999668	0.00000000	-12.02018000
58.99999667	0.00000000	-9.41806000
59.19999666	0.00000000	-5.65329700
59.39999664	0.00000000	-2.33759800
59.59999663	0.00000000	-0.60900590
59.79999662	0.00000000	-0.60900590
59.99999661	0.00000000	-2.28838600
60.19999660	0.00000000	-5.29035400
60.39999658	0.00000000	-9.06742000
60.59999657	0.00000000	-12.83218000
60.79999656	0.00000000	-14.92372000
60.99999655	0.00000000	-14.97293000
61.19999654	0.00000000	-13.29355000
61.39999653	0.00000000	-10.34080000
61.59999651	0.00000000	-6.92667200
61.79999650	0.00000000	-3.56176100
61.99999649	0.00000000	-1.01501000
62.19999648	0.00000000	-0.19685040
62.39999647	0.00000000	-1.01501000
62.59999645	0.00000000	-3.51254900
62.79999644	0.00000000	-6.46530500
62.99999643	0.00000000	-9.01820900
63.19999642	0.00000000	-11.15280000
63.39999641	0.00000000	-12.02018000
63.59999639	0.00000000	-12.06939000
63.79999638	0.00000000	-11.65723000
63.99999637	0.00000000	-10.80217000
64.19999636	0.00000000	-9.92864100
64.39999635	0.00000000	-8.60605200
64.59999634	0.00000000	-6.92667200
64.79999632	0.00000000	-5.24114100
64.99999631	0.00000000	-3.92470400
65.19999630	0.00000000	-3.05118100
65.39999629	0.00000000	-2.23917300
65.59999628	0.00000000	-2.33759800
65.79999626	0.00000000	-4.02313000
65.99999625	0.00000000	-6.92667200
66.19999624	0.00000000	-9.92864100
66.39999623	0.00000000	-12.53076000
66.59999622	0.00000000	-15.02214000
66.79999620	0.00000000	-16.24631000
66.99999619	0.00000000	-15.38509000
67.19999618	0.00000000	-12.83218000
67.39999617	0.00000000	-8.60605200
67.59999616	0.00000000	-3.92470400
67.79999615	0.00000000	0.31373030
67.99999613	0.00000000	3.66633800
68.19999612	0.00000000	4.43528500
68.39999611	0.00000000	2.39911400
68.59999610	0.00000000	-1.87623000
68.79999609	0.00000000	-7.33882900
68.99999607	0.00000000	-12.88755000
69.19999606	0.00000000	-17.11983000
69.39999605	0.00000000	-19.66658000
69.59999604	0.00000000	-19.61737000
69.79999603	0.00000000	-16.65846000
69.99999601	0.00000000	-11.60802000
70.19999600	0.00000000	-5.70251000
70.39999599	0.00000000	-0.60900590
70.59999598	0.00000000	2.80511800
70.79999597	0.00000000	4.07849400
70.99999596	0.00000000	2.80511800
71.19999594	0.00000000	-0.60900590
71.39999593	0.00000000	-5.70251000
71.59999592	0.00000000	-11.55881000
71.79999591	0.00000000	-16.19710000
71.99999590	0.00000000	-18.38706000
72.19999588	0.00000000	-18.38706000
72.39999587	0.00000000	-16.29552000
72.59999586	0.00000000	-12.43233000
72.79999585	0.00000000	-7.78789300
72.99999584	0.00000000	-2.70054100
73.19999582	0.00000000	1.07652500
73.39999581	0.00000000	2.80511800
73.59999580	0.00000000	2.34990100
73.79999579	0.00000000	-0.60900590
73.99999578	0.00000000	-5.19192900
74.19999577	0.00000000	-9.87942800
74.39999575	0.00000000	-13.75492000
74.59999574	0.00000000	-16.70768000
74.79999573	0.00000000	-17.88263000
74.99999572	0.00000000	-16.19710000
75.19999571	0.00000000	-12.02018000
75.39999569	0.00000000	-6.97588500
75.59999568	0.00000000	-2.28838600
75.79999567	0.00000000	1.07652500
75.99999566	0.00000000	2.34375000
76.19999565	0.00000000	1.07652500
76.39999563	0.00000000	-2.28838600
76.59999562	0.00000000	-6.97588500
76.79999561	0.00000000	-12.06939000
76.99999560	0.00000000	-16.65846000
77.19999559	0.00000000	-19.15600000
77.39999558	0.00000000	-18.28863000
77.59999556	0.00000000	-14.51772000
77.79999555	0.00000000	-8.60605200
77.99999554	0.00000000	-2.28838600
78.19999553	0.00000000	2.75590500
78.39999552	0.00000000	5.30265700
78.59999550	0.00000000	4.48449800
78.79999549	0.00000000	1.07037400
78.99999548	0.00000000	-4.47834600
79.19999547	0.00000000	-11.60802000
79.39999546	0.00000000	-17.88263000
79.59999544	0.00000000	-21.34596000
79.79999543	0.00000000	-21.75197000
79.99999542	0.00000000	-19.20522000
80.19999541	0.00000000	-13.65650000
80.39999540	0.00000000	-6.46530500
80.59999539	0.00000000	1.11958700
80.79999537	0.00000000	6.93282500
80.99999536	0.00000000	8.66756800
81.19999535	0.00000000	6.21924200
81.39999534	0.00000000	1.12573800
81.59999533	0.00000000	-5.70251000
81.79999531	0.00000000	-13.29355000
81.99999530	0.00000000	-19.61737000
82.19999529	0.00000000	-23.03149000
82.39999528	0.00000000	-23.08071000
82.59999527	0.00000000	-20.07259000
82.79999525	0.00000000	-14.56693000
82.99999524	0.00000000	-7.38804100
83.19999523	0.00000000	-0.60900590
83.39999522	0.00000000	4.53371000
83.59999521	0.00000000	7.49261800
83.79999520	0.00000000	7.44340500
83.99999518	0.00000000	4.07849400
84.19999517	0.00000000	-1.82701800
84.39999516	0.00000000	-8.60605200
84.59999515	0.00000000	-15.02214000
84.79999514	0.00000000	-20.07259000
84.99999512	0.00000000	-22.61934000
85.19999511	0.00000000	-21.80118000
85.39999510	0.00000000	-18.43627000
85.59999509	0.00000000	-13.29355000
85.79999508	0.00000000	-6.92667200
85.99999506	0.00000000	-0.60900590
86.19999505	0.00000000	4.07849400
86.39999504	0.00000000	6.21924200
86.59999503	0.00000000	5.81323800
86.79999502	0.00000000	2.80511800
86.99999501	0.00000000	-2.28838600
87.19999499	0.00000000	-8.60605200
87.39999498	0.00000000	-14.56693000
87.59999497	0.00000000	-18.84842000
87.79999496	0.00000000	-21.39518000
87.99999495	0.00000000	-21.34596000
88.19999493	0.00000000	-18.38706000
88.39999492	0.00000000	-13.29355000
88.59999491	0.00000000	-6.97588500
88.79999490	0.00000000	-1.01501000
88.99999489	0.00000000	3.21727300
89.19999487	0.00000000	5.35187000
89.39999486	0.00000000	4.48449800
89.59999485	0.00000000	1.16879900
89.79999484	0.00000000	-3.56176100
89.99999483	0.00000000	-9.06742000
90.19999482	0.00000000	-14.51772000
90.39999480	0.00000000	-17.93184000
90.59999479	0.00000000	-18.79921000
90.79999478	0.00000000	-17.56890000
90.99999477	0.00000000	-14.16708000
91.19999476	0.00000000	-9.97785300
91.39999474	0.00000000	-5.65329700
91.59999473	0.00000000	-1.87623000
91.79999472	0.00000000	0.66437010
91.99999471	0.00000000	1.07037400
92.19999470	0.00000000	-0.55979330
92.39999468	0.00000000	-3.51254900
92.59999467	0.00000000	-6.87746000
92.79999466	0.00000000	-9.87942800
92.99999465	0.00000000	-12.02018000
93.19999464	0.00000000	-13.29355000
93.39999463	0.00000000	-13.29355000
93.59999461	0.00000000	-12.06939000
93.79999460	0.00000000	-10.39001000
93.99999459	0.00000000	-8.65526600
94.19999458	0.00000000	-6.92667200
94.39999457	0.00000000	-5.29035400
94.59999455	0.00000000	-4.42913300
94.79999454	0.00000000	-4.77977300
94.99999453	0.00000000	-5.19192900
95.19999452	0.00000000	-5.65329700
95.39999451	0.00000000	-6.51451700
95.59999449	0.00000000	-7.33882900
95.79999448	0.00000000	-8.19389700
95.99999447	0.00000000	-8.60605200
96.19999446	0.00000000	-8.65526600
96.39999445	0.00000000	-8.65526600
96.59999444	0.00000000	-8.65526600
96.79999442	0.00000000	-8.65526600
96.99999441	0.00000000	-8.60605200
97.19999440	0.00000000	-8.19389700
97.39999439	0.00000000	-7.38804100
97.59999438	0.00000000	-6.97588500
97.79999436	0.00000000	-6.87746000
97.99999435	0.00000000	-6.46530500
98.19999434	0.00000000	-5.70251000
98.39999433	0.00000000	-5.70251000
98.59999432	0.00000000	-6.51451700
98.79999430	0.00000000	-7.33882900
98.99999429	0.00000000	-8.24311000
99.19999428	0.00000000	-9.06742000
99.39999427	0.00000000	-9.92864100
99.59999426	0.00000000	-10.29158000
99.79999425	0.00000000	-9.92864100
99.99999423	0.00000000	-9.06742000
100.19999422	0.00000000	-8.24311000
100.39999421	0.00000000	-7.33882900
100.59999420	0.00000000	-6.51451700
100.79999419	0.00000000	-5.65329700
100.99999417	0.00000000	-5.29035400
101.19999416	0.00000000	-5.65329700
101.39999415	0.00000000	-6.51451700
101.59999414	0.00000000	-7.33882900
101.79999413	0.00000000	-8.24311000
101.99999411	0.00000000	-9.06742000
102.19999410	0.00000000	-9.92864100
102.39999409	0.00000000	-10.29158000
102.59999408	0.00000000	-9.92864100
102.79999407	0.00000000	-9.06742000
102.99999406	0.00000000	-8.19389700
103.19999404	0.00000000	-6.92667200
103.39999403	0.00000000	-5.70251000
103.59999402	0.00000000	-5.24114100
103.79999401	0.00000000	-5.24114100
103.99999400	0.00000000	-5.65329700
104.19999398	0.00000000	-6.51451700
104.39999397	0.00000000	-7.38804100
104.59999396	0.00000000	-8.65526600
104.79999395	0.00000000	-9.87942800
104.99999394	0.00000000	-10.29158000
105.19999392	0.00000000	-9.92864100
105.39999391	0.00000000	-9.06742000
105.59999390	0.00000000	-8.19389700
105.79999389	0.00000000	-6.92667200
105.99999388	0.00000000	-5.70251000
106.19999387	0.00000000	-5.24114100
106.39999385	0.00000000	-5.24114100
106.59999384	0.00000000	-5.70251000
106.79999383	0.00000000	-6.92667200
106.99999382	0.00000000	-8.19389700
107.19999381	0.00000000	-9.06742000
107.39999379	0.00000000	-9.92864100
107.59999378	0.00000000	-10.34080000
107.79999377	0.00000000	-10.34080000
107.99999376	0.00000000	-9.87942800
108.19999375	0.00000000	-8.60605200
108.39999374	0.00000000	-6.92667200
