Time	Channel A	Channel B
(us)	(V)	(mV)

-4.59999956	0.00000000	-4.77977300
-4.39999957	0.00000000	-4.37992100
-4.19999958	0.00000000	-4.77977300
-3.99999959	0.00000000	-5.14271600
-3.79999960	0.00000000	-5.14271600
-3.59999962	0.00000000	-4.77977300
-3.39999963	0.00000000	-4.33070900
-3.19999964	0.00000000	-4.37376900
-2.99999965	0.00000000	-4.33070900
-2.79999966	0.00000000	-4.77977300
-2.59999968	0.00000000	-5.14271600
-2.39999969	0.00000000	-5.19192900
-2.19999970	0.00000000	-5.19192900
-1.99999971	0.00000000	-5.14271600
-1.79999972	0.00000000	-4.77977300
-1.59999973	0.00000000	-4.33070900
-1.39999975	0.00000000	-4.37376900
-1.19999976	0.00000000	-4.28149600
-0.99999977	0.00000000	-4.37376900
-0.79999978	0.00000000	-4.28149600
-0.59999979	0.00000000	-4.37376900
-0.39999981	0.35125490	-4.28149600
-0.19999982	0.70250980	-4.32455700
0.00000017	0.87844490	-3.92470400
0.20000016	1.05376500	-3.97391700
0.40000015	0.87844490	-4.73056000
0.60000013	0.35125490	-5.14271600
0.80000012	-0.52657480	-5.19192900
1.00000011	-1.58095500	-5.14271600
1.20000010	-2.45940000	-4.73056000
1.40000009	-2.81127000	-3.92470400
1.60000008	-2.45940000	-3.51254900
1.80000006	-1.22970000	-3.46333600
2.00000005	0.52657480	-3.46333600
2.20000004	2.63533500	-3.51254900
2.40000003	4.56816000	-3.92470400
2.60000002	5.27128500	-4.73056000
2.80000000	4.74409400	-5.19192900
2.99999999	2.81127000	-5.65329700
3.19999998	-0.17531990	-6.41609200
3.39999997	-3.68971500	-6.36687900
3.59999996	-6.50098400	-5.19192900
3.79999994	-7.90661900	-3.97391700
3.99999993	-7.37942900	-3.46333600
4.19999992	-4.91941500	-3.05118100
4.39999991	-1.05376500	-2.65132900
4.59999990	3.33846000	-3.05118100
4.79999989	7.20410900	-3.46333600
4.99999987	9.31225400	-3.97391700
5.19999986	8.96099900	-5.19192900
5.39999985	6.50098400	-6.41609200
5.59999984	2.28408000	-6.87746000
5.79999983	-2.63533500	-6.87746000
5.99999981	-6.85223900	-6.41609200
6.19999980	-9.13693400	-5.19192900
6.39999979	-9.13693400	-3.97391700
6.59999978	-7.02817400	-3.46333600
6.79999977	-3.16252500	-3.05118100
6.99999975	1.22970000	-2.70054100
7.19999974	4.91941500	-3.51254900
7.39999973	7.20410900	-4.68134800
7.59999972	7.55536400	-5.19192900
7.79999971	5.97379400	-5.60408400
7.99999970	3.16252500	-6.00393600
8.19999968	-0.17531990	-5.60408400
8.39999967	-2.98659000	-5.24114100
8.59999966	-4.74409400	-5.14271600
8.79999965	-5.09534900	-4.73056000
8.99999964	-4.21690500	-3.92470400
9.19999962	-2.45940000	-3.51254900
9.39999961	-0.52657480	-3.51254900
9.59999960	1.22970000	-3.92470400
9.79999959	2.28408000	-4.73056000
9.99999958	2.45940000	-5.09350300
10.19999956	1.93282500	-4.77977300
10.39999955	1.22970000	-4.37992100
10.59999954	0.35125490	-4.77977300
10.79999953	-0.35125490	-5.14271600
10.99999952	-0.87844490	-5.19192900
11.19999951	-0.87844490	-5.19192900
11.39999949	-0.87844490	-5.19192900
11.59999948	-0.52657480	-5.14271600
11.79999947	-0.17531990	-4.77977300
11.99999946	0.00000000	-4.33070900
12.19999945	0.00000000	-4.37376900
12.39999943	0.00000000	-4.28149600
12.59999942	-0.17531990	-4.32455700
12.79999941	-0.17531990	-3.92470400
12.99999940	-0.17531990	-3.97391700
13.19999939	-0.17531990	-4.68134800
13.39999937	-0.17531990	-4.73056000
13.59999936	0.00000000	-4.33070900
13.79999935	0.00000000	-4.37376900
13.99999934	0.00000000	-4.33070900
14.19999933	0.00000000	-4.77977300
14.39999932	0.00000000	-5.14271600
14.59999930	0.00000000	-5.19192900
14.79999929	0.00000000	-5.19192900
14.99999928	0.00000000	-5.19192900
15.19999927	0.00000000	-5.19192900
15.39999926	0.00000000	-5.19192900
15.59999924	0.00000000	-5.14271600
15.79999923	-0.17531990	-4.77977300
15.99999922	0.00000000	-4.33070900
16.19999921	0.00000000	-4.37376900
16.39999920	0.00000000	-4.33070900
16.59999919	0.00000000	-4.77977300
16.79999917	0.00000000	-5.14271600
16.99999916	0.00000000	-5.19192900
17.19999915	0.00000000	-5.14271600
17.39999914	0.00000000	-4.77977300
17.59999913	0.00000000	-4.37992100
17.79999911	0.00000000	-4.77977300
17.99999910	0.00000000	-5.09350300
18.19999909	0.00000000	-4.77977300
18.39999908	0.00000000	-4.37992100
18.59999907	0.00000000	-4.77977300
18.79999905	0.00000000	-5.09350300
18.99999904	0.00000000	-4.73056000
19.19999903	0.00000000	-3.97391700
19.39999902	0.00000000	-3.97391700
19.59999901	0.00000000	-4.73056000
19.79999900	0.00000000	-5.14271600
19.99999898	0.00000000	-5.19192900
20.19999897	0.00000000	-5.19192900
20.39999896	0.00000000	-5.19192900
20.59999895	0.00000000	-5.19192900
20.79999894	0.00000000	-5.19192900
20.99999892	0.00000000	-5.19192900
21.19999891	0.00000000	-5.19192900
21.39999890	0.00000000	-5.14271600
21.59999889	0.00000000	-4.73056000
21.79999888	0.00000000	-3.92470400
21.99999886	0.00000000	-3.51254900
22.19999885	0.00000000	-3.51254900
22.39999884	0.00000000	-3.92470400
22.59999883	0.00000000	-4.73056000
22.79999882	0.00000000	-5.14271600
22.99999881	0.00000000	-5.19192900
23.19999879	0.00000000	-5.19192900
23.39999878	0.00000000	-5.24114100
23.59999877	0.00000000	-5.60408400
23.79999876	0.00000000	-6.00393600
23.99999875	0.00000000	-5.55487200
24.19999873	0.00000000	-4.73056000
24.39999872	0.00000000	-3.46333600
24.59999871	0.00000000	-2.23917300
24.79999870	0.00000000	-1.72859200
24.99999869	0.00000000	-1.31643700
25.19999867	0.00000000	-0.96579720
25.39999866	0.00000000	-1.82701800
25.59999865	0.00000000	-3.51254900
25.79999864	0.00000000	-5.65329700
25.99999863	0.00000000	-8.19389700
26.19999862	0.00000000	-10.29158000
26.39999860	0.00000000	-11.55881000
26.59999859	0.00000000	-11.46038000
26.79999858	0.00000000	-9.31963500
26.99999857	0.00000000	-5.04429100
27.19999856	0.00000000	0.41215550
27.39999854	0.00000000	5.96087600
27.59999853	0.00000000	10.09473000
27.79999852	0.00000000	11.71875000
27.99999851	0.00000000	9.12893600
28.19999850	0.00000000	2.75590500
28.39999848	0.00000000	-6.21309000
28.59999847	0.00000000	-16.75689000
28.79999846	0.00000000	-25.93504000
28.99999845	0.00000000	-30.56717000
29.19999844	0.00000000	-29.25074000
29.39999843	0.00000000	-22.01033000
29.59999841	0.00000000	-9.68257800
29.79999840	0.00000000	5.09350300
29.99999839	0.00000000	19.15600000
30.19999838	0.00000000	29.60753000
30.39999837	0.00000000	33.72908000
30.59999835	0.00000000	28.54330000
30.79999834	0.00000000	15.03445000
30.99999833	0.00000000	-4.02313000
31.19999832	0.00000000	-24.24951000
31.39999831	0.00000000	-40.35433000
31.59999829	0.00000000	-48.81274000
31.79999828	0.00000000	-47.89616000
31.99999827	0.00000000	-36.79257000
32.19999826	0.00000000	-17.32283000
32.39999825	0.00000000	6.26845500
32.59999824	0.00000000	27.82357000
32.79999822	0.00000000	41.83686000
32.99999821	0.00000000	46.01993000
33.19999820	0.00000000	38.73031000
33.39999819	0.00000000	20.58932000
33.59999818	0.00000000	-3.46333600
33.79999816	0.00000000	-27.61442000
33.99999815	0.00000000	-46.67199000
34.19999814	0.00000000	-56.40993000
34.39999813	0.00000000	-54.62598000
34.59999812	0.00000000	-41.11712000
34.79999810	0.00000000	-18.75000000
34.99999809	0.00000000	6.17002900
35.19999808	0.00000000	28.22958000
35.39999807	0.00000000	42.60580000
35.59999806	0.00000000	46.01993000
35.79999805	0.00000000	37.96751000
35.99999803	0.00000000	20.22638000
36.19999802	0.00000000	-2.95275600
36.39999801	0.00000000	-25.37524000
36.59999800	0.00000000	-41.93528000
36.79999799	0.00000000	-49.53248000
36.99999797	0.00000000	-46.16756000
37.19999796	0.00000000	-32.66486000
37.39999795	0.00000000	-12.93676000
37.59999794	0.00000000	7.79404500
37.79999793	0.00000000	23.85581000
37.99999791	0.00000000	32.40649000
38.19999790	0.00000000	31.54527000
38.39999789	0.00000000	21.96112000
38.59999788	0.00000000	6.72982200
38.79999787	0.00000000	-10.09473000
38.99999786	0.00000000	-24.45866000
39.19999784	0.00000000	-32.10507000
39.39999783	0.00000000	-32.20350000
39.59999782	0.00000000	-25.47367000
39.79999781	-0.17531990	-13.70571000
39.99999780	0.00000000	-0.65821850
40.19999778	0.00000000	10.29774000
40.39999777	0.00000000	16.25246000
40.59999776	0.00000000	15.90182000
40.79999775	0.00000000	10.49459000
40.99999774	0.00000000	1.63016700
41.19999772	0.00000000	-8.00319800
41.39999771	0.00000000	-15.59424000
41.59999770	0.00000000	-19.00837000
41.79999769	0.00000000	-17.83341000
41.99999768	0.00000000	-13.24434000
42.19999767	0.00000000	-6.92667200
42.39999765	0.00000000	-0.60900590
42.59999764	0.00000000	4.02928100
42.79999763	0.00000000	5.75787400
42.99999762	0.00000000	4.53371000
43.19999761	0.00000000	1.21801200
43.39999759	0.00000000	-2.95275600
43.59999758	0.00000000	-6.31766700
43.79999757	0.00000000	-8.04626000
43.99999756	0.00000000	-8.09547100
44.19999755	0.00000000	-6.87746000
44.39999753	0.00000000	-5.24114100
44.59999752	0.00000000	-3.97391700
44.79999751	0.00000000	-3.56176100
44.99999750	0.00000000	-3.97391700
45.19999749	0.00000000	-5.19192900
45.39999748	0.00000000	-6.36687900
45.59999746	0.00000000	-6.36687900
45.79999745	0.00000000	-5.14271600
45.99999744	0.00000000	-3.41412400
46.19999743	0.00000000	-1.32258800
46.39999742	0.00000000	0.76279520
46.59999740	0.00000000	1.53174200
46.79999739	0.00000000	0.71358260
46.99999738	0.00000000	-1.82701800
47.19999737	0.00000000	-5.14271600
47.39999736	0.00000000	-8.19389700
47.59999734	0.00000000	-10.70374000
47.79999733	0.00000000	-12.32775000
47.99999732	0.00000000	-11.46038000
48.19999731	0.00000000	-8.60605200
48.39999730	0.00000000	-5.19192900
48.59999729	0.00000000	-1.77780500
48.79999727	0.00000000	1.12573800
48.99999726	0.00000000	2.44217500
49.19999725	0.00000000	2.09153500
49.39999724	0.00000000	1.21801200
49.59999723	0.00000000	-0.55979330
49.79999721	0.00000000	-3.46333600
49.99999720	0.00000000	-6.41609200
50.19999719	0.00000000	-8.55684000
50.39999718	0.00000000	-9.87942800
50.59999717	0.00000000	-10.29158000
50.79999715	0.00000000	-9.87942800
50.99999714	0.00000000	-8.55684000
51.19999713	0.00000000	-6.46530500
51.39999712	-0.17531990	-3.92470400
51.59999711	0.00000000	-1.77780500
51.79999710	0.00000000	-0.04921259
51.99999708	0.00000000	1.16879900
52.19999707	0.00000000	1.21801200
52.39999706	0.00000000	0.36294290
52.59999705	0.00000000	-0.91658460
52.79999704	0.00000000	-3.10039400
52.99999702	0.00000000	-5.55487200
53.19999701	0.00000000	-7.68946800
53.39999700	0.00000000	-8.55684000
53.59999699	0.00000000	-8.60605200
53.79999698	-0.17531990	-8.14468500
53.99999696	0.00000000	-6.82824800
54.19999695	0.00000000	-4.73056000
54.39999694	0.00000000	-2.18996000
54.59999693	0.00000000	-0.09842519
54.79999692	0.00000000	1.16879900
54.99999691	0.00000000	1.11958700
55.19999689	0.00000000	-0.51058070
55.39999688	0.00000000	-3.05118100
55.59999687	0.00000000	-5.55487200
55.79999686	0.00000000	-7.73868000
55.99999685	0.00000000	-8.91978400
56.19999683	0.00000000	-8.96284400
56.39999682	0.00000000	-7.24040300
56.59999681	0.00000000	-4.77977300
56.79999680	0.00000000	-2.18996000
56.99999679	0.00000000	-0.09842519
57.19999677	0.00000000	1.16879900
57.39999676	0.00000000	1.11958700
57.59999675	0.00000000	-0.55979330
57.79999674	0.00000000	-3.46333600
57.99999673	0.00000000	-6.41609200
58.19999672	0.00000000	-8.55684000
58.39999670	0.00000000	-9.78100300
58.59999669	0.00000000	-9.37500000
58.79999668	0.00000000	-7.24040300
58.99999667	0.00000000	-4.32455700
59.19999666	0.00000000	-0.96579720
59.39999664	0.00000000	1.16879900
59.59999663	0.00000000	2.04232300
59.79999662	0.00000000	1.98695800
59.99999661	0.00000000	-0.14763780
60.19999660	0.00000000	-3.46333600
60.39999658	0.00000000	-6.82824800
60.59999657	0.00000000	-9.42421200
60.79999656	0.00000000	-10.65453000
60.99999655	0.00000000	-10.64222000
61.19999654	0.00000000	-8.50762700
61.39999653	0.00000000	-5.19192900
61.59999651	0.00000000	-1.77780500
61.79999650	0.00000000	1.12573800
61.99999649	0.00000000	2.44217500
62.19999648	0.00000000	2.04232300
62.39999647	0.00000000	0.81200780
62.59999645	0.00000000	-1.37180100
62.79999644	0.00000000	-3.87549200
62.99999643	0.00000000	-6.46530500
63.19999642	0.00000000	-8.55684000
63.39999641	0.00000000	-9.78100300
63.59999639	0.00000000	-9.42421200
63.79999638	0.00000000	-7.79404500
63.99999637	0.00000000	-6.51451700
64.19999636	0.00000000	-5.09350300
64.39999635	0.00000000	-3.05118100
64.59999634	0.00000000	-0.91658460
64.79999632	0.00000000	0.36294290
64.99999631	0.00000000	1.26722400
65.19999630	0.00000000	1.63016700
65.39999629	0.00000000	1.16879900
65.59999628	0.00000000	-0.51058070
65.79999626	0.00000000	-3.05118100
65.99999625	0.00000000	-5.60408400
66.19999624	0.00000000	-8.14468500
66.39999623	0.00000000	-9.83021600
66.59999622	-0.17531990	-10.29158000
66.79999620	0.00000000	-9.83021600
66.99999619	0.00000000	-7.99704600
67.19999618	0.00000000	-4.32455700
67.39999617	0.00000000	-0.06151574
67.59999616	0.00000000	2.90969500
67.79999615	0.00000000	5.45029500
67.99999613	0.00000000	5.76402500
68.19999612	0.00000000	3.36491100
68.39999611	0.00000000	-0.04921259
68.59999610	0.00000000	-3.92470400
68.79999609	0.00000000	-8.14468500
68.99999607	0.00000000	-11.50960000
69.19999606	0.00000000	-13.24434000
69.39999605	0.00000000	-13.19513000
69.59999604	0.00000000	-11.05438000
69.79999603	0.00000000	-6.87746000
69.99999601	0.00000000	-2.23917300
70.19999600	0.00000000	1.63016700
70.39999599	0.00000000	4.58292300
70.59999598	0.00000000	5.80708600
70.79999597	0.00000000	4.58292300
70.99999596	0.00000000	1.63016700
71.19999594	0.00000000	-2.18996000
71.39999593	0.00000000	-6.46530500
71.59999592	0.00000000	-10.24237000
71.79999591	0.00000000	-12.78912000
71.99999590	0.00000000	-13.14591000
72.19999588	0.00000000	-11.15280000
72.39999587	0.00000000	-7.74483200
72.59999586	0.00000000	-4.32455700
72.79999585	0.00000000	-0.51058070
72.99999584	0.00000000	2.39911400
73.19999582	0.00000000	3.31569900
73.39999581	0.00000000	2.90354300
73.59999580	0.00000000	1.17495100
73.79999579	0.00000000	-1.77780500
73.99999578	0.00000000	-5.14271600
74.19999577	0.00000000	-8.14468500
74.39999575	0.00000000	-10.24237000
74.59999574	0.00000000	-11.05438000
74.79999573	0.00000000	-9.78100300
74.99999572	0.00000000	-6.87746000
75.19999571	0.00000000	-3.46333600
75.39999569	0.00000000	-0.09842519
75.59999568	0.00000000	2.44832700
75.79999567	0.00000000	3.26648600
75.99999566	0.00000000	2.39911400
76.19999565	0.00000000	-0.60900590
76.39999563	0.00000000	-5.14271600
76.59999562	0.00000000	-9.36884800
76.79999561	0.00000000	-11.92175000
76.99999560	0.00000000	-12.78297000
77.19999559	0.00000000	-11.46038000
77.39999558	0.00000000	-8.09547100
77.59999556	0.00000000	-3.46333600
77.79999555	0.00000000	1.21801200
77.99999554	0.00000000	4.99507900
78.19999553	0.00000000	7.08046200
78.39999552	0.00000000	6.21924200
78.59999550	0.00000000	2.85433100
78.79999549	0.00000000	-2.18996000
78.99999548	0.00000000	-7.68946800
79.19999547	0.00000000	-11.97096000
79.39999546	0.00000000	-14.92372000
79.59999544	0.00000000	-15.69267000
79.79999543	0.00000000	-13.14591000
79.99999542	0.00000000	-8.09547100
80.19999541	0.00000000	-1.72859200
80.39999540	0.00000000	4.58907500
80.59999539	0.00000000	9.22121000
80.79999537	0.00000000	10.95595000
80.99999536	0.00000000	9.68257800
81.19999535	0.00000000	5.81323800
81.39999534	0.00000000	-0.51058070
81.59999533	0.00000000	-7.64025500
81.79999531	0.00000000	-13.19513000
81.99999530	0.00000000	-16.65846000
82.19999529	0.00000000	-17.88263000
82.39999528	0.00000000	-16.19710000
82.59999527	0.00000000	-11.97096000
82.79999525	0.00000000	-6.46530500
82.99999524	0.00000000	-0.51058070
83.19999523	0.00000000	4.58292300
83.39999522	0.00000000	7.99704600
83.59999521	0.00000000	9.27042300
83.79999520	0.00000000	7.94783400
83.99999518	0.00000000	4.17691900
84.19999517	0.00000000	-1.32258800
84.39999516	0.00000000	-6.82824800
84.59999515	-0.17531990	-11.55881000
84.79999514	0.00000000	-14.92372000
84.99999512	0.00000000	-16.19710000
85.19999511	0.00000000	-14.92372000
85.39999510	0.00000000	-11.55881000
85.59999509	0.00000000	-6.87746000
85.79999508	0.00000000	-1.77780500
85.99999506	0.00000000	2.90354300
86.19999505	0.00000000	6.26845500
86.39999504	0.00000000	7.59104300
86.59999503	0.00000000	6.72982200
86.79999502	0.00000000	4.12770700
86.99999501	0.00000000	-0.55979330
87.19999499	0.00000000	-6.41609200
87.39999498	0.00000000	-11.50960000
87.59999497	0.00000000	-14.92372000
87.79999496	0.00000000	-16.19710000
87.99999495	0.00000000	-14.92372000
88.19999493	0.00000000	-11.55881000
88.39999492	0.00000000	-6.87746000
88.59999491	0.00000000	-1.77780500
88.79999490	0.00000000	2.90354300
88.99999489	0.00000000	6.26845500
89.19999487	0.00000000	7.49261800
89.39999486	0.00000000	5.80708600
89.59999485	0.00000000	1.67938000
89.79999484	0.00000000	-2.95275600
89.99999483	0.00000000	-6.87746000
90.19999482	0.00000000	-10.29158000
90.39999480	0.00000000	-12.78912000
90.59999479	0.00000000	-13.19513000
90.79999478	0.00000000	-11.50960000
90.99999477	0.00000000	-8.19389700
91.19999476	0.00000000	-4.37992100
91.39999474	0.00000000	-1.37180100
91.59999473	0.00000000	1.22416300
91.79999472	0.00000000	2.85433100
91.99999471	0.00000000	2.90354300
92.19999470	0.00000000	1.63016700
92.39999468	0.00000000	-0.46136810
92.59999467	0.00000000	-3.00196800
92.79999466	0.00000000	-5.14271600
92.99999465	0.00000000	-6.87746000
93.19999464	0.00000000	-8.09547100
93.39999463	0.00000000	-8.14468500
93.59999461	0.00000000	-7.28961600
93.79999460	0.00000000	-6.05930100
93.99999459	0.00000000	-4.33070900
94.19999458	0.00000000	-3.10039400
94.39999457	0.00000000	-2.18996000
94.59999455	0.00000000	-1.77780500
94.79999454	0.00000000	-1.72859200
94.99999453	0.00000000	-1.72859200
95.19999452	0.00000000	-1.77780500
95.39999451	0.00000000	-2.23917300
95.59999449	0.00000000	-3.46333600
95.79999448	0.00000000	-4.68134800
95.99999447	0.00000000	-5.14271600
96.19999446	0.00000000	-5.19192900
96.39999445	0.00000000	-5.19192900
96.59999444	0.00000000	-5.19192900
96.79999442	0.00000000	-5.14271600
96.99999441	0.00000000	-4.73056000
97.19999440	0.00000000	-3.97391700
97.39999439	0.00000000	-3.87549200
97.59999438	0.00000000	-3.81397600
97.79999436	0.00000000	-2.59596400
97.99999435	0.00000000	-1.87623000
98.19999434	0.00000000	-2.18996000
98.39999433	0.00000000	-3.00196800
98.59999432	0.00000000	-3.46333600
98.79999430	0.00000000	-3.92470400
98.99999429	0.00000000	-4.77977300
99.19999428	0.00000000	-5.55487200
99.39999427	0.00000000	-5.95472400
99.59999426	0.00000000	-5.19192900
99.79999425	0.00000000	-4.37992100
99.99999423	0.00000000	-4.27534400
100.19999422	0.00000000	-3.41412400
100.39999421	0.00000000	-2.18996000
100.59999420	0.00000000	-1.36565000
100.79999419	0.00000000	-0.91658460
100.99999417	0.00000000	-1.31643700
101.19999416	0.00000000	-1.72859200
101.39999415	0.00000000	-2.23917300
101.59999414	0.00000000	-3.51254900
101.79999413	0.00000000	-5.14271600
101.99999411	0.00000000	-6.36687900
102.19999410	0.00000000	-6.41609200
102.39999409	0.00000000	-5.60408400
102.59999408	0.00000000	-4.73056000
102.79999407	0.00000000	-3.46333600
102.99999406	0.00000000	-2.23917300
103.19999404	0.00000000	-1.72859200
103.39999403	0.00000000	-1.31643700
103.59999402	0.00000000	-0.96579720
103.79999401	0.00000000	-1.82701800
103.99999400	0.00000000	-3.41412400
104.19999398	0.00000000	-4.73056000
104.39999397	0.00000000	-5.60408400
104.59999396	0.00000000	-6.41609200
104.79999395	0.00000000	-6.41609200
104.99999394	0.00000000	-5.60408400
105.19999392	0.00000000	-4.73056000
105.39999391	0.00000000	-3.46333600
105.59999390	0.00000000	-2.23917300
105.79999389	0.00000000	-1.77780500
105.99999388	0.00000000	-1.72859200
106.19999387	0.00000000	-1.77780500
106.39999385	0.00000000	-2.18996000
106.59999384	0.00000000	-3.10039400
106.79999383	0.00000000	-4.28149600
106.99999382	0.00000000	-5.54872000
107.19999381	0.00000000	-5.60408400
107.39999379	0.00000000	-5.65329700
107.59999378	0.00000000	-5.95472400
107.79999377	0.00000000	-5.09350300
107.99999376	0.00000000	-3.51254900
108.19999375	0.00000000	-2.23917300
108.39999374	0.00000000	-1.77780500
108.59999372	0.00000000	-1.72859200
108.79999371	0.00000000	-1.77780500
108.99999370	0.00000000	-2.18996000
