Time	Channel A	Channel B
(us)	(V)	(mV)

-4.49999956	0.00000000	-25.97195000
-4.29999957	0.00000000	-25.97195000
-4.09999958	0.00000000	-25.97195000
-3.89999959	0.00000000	-25.97195000
-3.69999960	0.00000000	-25.97195000
-3.49999962	0.00000000	-25.97195000
-3.29999963	0.00000000	-25.97195000
-3.09999964	0.00000000	-25.97195000
-2.89999965	0.00000000	-25.97195000
-2.69999966	0.00000000	-25.97195000
-2.49999968	0.00000000	-25.97195000
-2.29999969	0.00000000	-25.97195000
-2.09999970	0.00000000	-25.97195000
-1.89999971	0.00000000	-26.02116000
-1.69999972	0.00000000	-26.38410000
-1.49999973	0.00000000	-26.83317000
-1.29999975	0.00000000	-26.84547000
-1.09999976	0.00000000	-27.24532000
-0.89999977	0.00000000	-27.19611000
-0.69999978	0.00000000	-26.43332000
-0.49999979	0.00000000	-26.02116000
-0.29999981	0.35125490	-25.97195000
-0.09999982	0.70250980	-26.02116000
0.10000017	1.05376500	-26.43332000
0.30000016	1.05376500	-27.24532000
0.50000015	0.70250980	-27.65748000
0.70000013	0.17531990	-27.70669000
0.90000012	-0.70250980	-27.70669000
1.10000011	-1.75689000	-27.70669000
1.30000010	-2.45940000	-27.65748000
1.50000009	-2.81127000	-27.24532000
1.70000008	-2.28408000	-26.43332000
1.90000006	-1.05376500	-26.02116000
2.10000005	1.05376500	-25.97195000
2.30000004	2.98659000	-26.02116000
2.50000003	4.74409400	-26.43332000
2.70000002	5.44660400	-27.24532000
2.90000000	4.56816000	-27.65748000
3.09999999	2.45940000	-27.70669000
3.29999998	-0.87844490	-27.70669000
3.49999997	-4.21690500	-27.65748000
3.69999996	-6.85223900	-27.24532000
3.89999994	-8.08255400	-26.38410000
4.09999993	-7.20410900	-25.55979000
4.29999992	-4.21690500	-24.75394000
4.49999991	-0.17531990	-24.75394000
4.69999990	4.21690500	-25.51058000
4.89999989	7.73129900	-25.97195000
5.09999987	9.48818900	-26.43332000
5.29999986	8.78567900	-27.24532000
5.49999985	5.79847400	-27.65748000
5.69999984	1.40563500	-27.65748000
5.89999983	-3.33846000	-27.24532000
6.09999981	-7.37942900	-26.43332000
6.29999980	-9.31225400	-25.97195000
6.49999979	-8.96099900	-25.51058000
6.69999978	-6.50098400	-24.75394000
6.89999977	-2.45940000	-24.75394000
7.09999975	1.93282500	-25.51058000
7.29999974	5.62254000	-25.92274000
7.49999973	7.55536400	-26.02116000
7.69999972	7.55536400	-26.43332000
7.89999971	5.62254000	-27.19611000
8.09999970	2.63533500	-27.19611000
8.29999968	-0.70250980	-26.48253000
8.49999967	-3.33846000	-26.43332000
8.69999966	-4.91941500	-26.78395000
8.89999965	-5.09534900	-26.38410000
9.09999964	-3.86565000	-26.02116000
9.29999962	-1.93282500	-25.97195000
9.49999961	0.00000000	-25.97195000
9.69999960	1.58095500	-25.97195000
9.89999959	2.45940000	-26.02116000
10.09999958	2.45940000	-26.38410000
10.29999956	1.93282500	-26.78395000
10.49999955	1.05376500	-26.38410000
10.69999954	0.17531990	-26.07037000
10.89999953	-0.52657480	-26.38410000
11.09999952	-0.87844490	-26.78395000
11.29999951	-0.87844490	-26.38410000
11.49999949	-0.70250980	-26.07037000
11.69999948	-0.52657480	-26.38410000
11.89999947	-0.17531990	-26.78395000
12.09999946	0.00000000	-26.38410000
12.29999945	0.00000000	-26.02116000
12.49999943	0.00000000	-26.02116000
12.69999942	0.00000000	-26.38410000
12.89999941	0.00000000	-26.78395000
13.09999940	-0.17531990	-26.43332000
13.29999939	0.00000000	-26.48253000
13.49999937	-0.17531990	-27.24532000
13.69999936	0.00000000	-27.65748000
13.89999935	0.00000000	-27.70669000
14.09999934	0.00000000	-27.70669000
14.29999933	0.00000000	-27.70669000
14.49999932	0.00000000	-27.70669000
14.69999930	0.00000000	-27.70669000
14.89999929	0.00000000	-27.70669000
15.09999928	0.00000000	-27.70669000
15.29999927	0.00000000	-27.70669000
15.49999926	0.00000000	-27.70669000
15.69999924	0.00000000	-27.70669000
15.89999923	0.00000000	-27.70669000
16.09999922	0.00000000	-27.70669000
16.29999921	0.00000000	-27.70669000
16.49999920	0.00000000	-27.70669000
16.69999919	0.00000000	-27.70669000
16.89999917	0.00000000	-27.70669000
17.09999916	0.00000000	-27.70669000
17.29999915	0.00000000	-27.70669000
17.49999914	0.00000000	-27.70669000
17.69999913	0.00000000	-27.70669000
17.89999911	0.00000000	-27.70669000
18.09999910	0.00000000	-27.65748000
18.29999909	0.00000000	-27.29453000
18.49999908	0.00000000	-26.89468000
18.69999907	0.00000000	-27.29453000
18.89999905	0.00000000	-27.60827000
19.09999904	0.00000000	-27.24532000
19.29999903	0.00000000	-26.43332000
19.49999902	0.00000000	-26.07037000
19.69999901	0.00000000	-26.43332000
19.89999900	0.00000000	-27.24532000
20.09999898	0.00000000	-27.60827000
20.29999897	0.00000000	-27.29453000
20.49999896	0.00000000	-26.84547000
20.69999895	0.00000000	-26.88238000
20.89999894	0.00000000	-26.79626000
21.09999892	0.00000000	-26.83317000
21.29999891	0.00000000	-26.43332000
21.49999890	0.00000000	-26.43332000
21.69999889	0.00000000	-26.83317000
21.89999888	0.00000000	-26.79626000
22.09999886	0.00000000	-26.83317000
22.29999885	0.00000000	-26.38410000
22.49999884	0.00000000	-26.07037000
22.69999883	0.00000000	-26.43332000
22.89999882	0.00000000	-27.24532000
23.09999881	0.00000000	-27.65748000
23.29999879	0.00000000	-27.70669000
23.49999878	0.00000000	-27.70669000
23.69999877	0.00000000	-27.70669000
23.89999876	0.00000000	-27.70669000
24.09999875	0.00000000	-27.65748000
24.29999873	0.00000000	-27.19611000
24.49999872	0.00000000	-25.97195000
24.69999871	0.00000000	-24.70472000
24.89999870	0.00000000	-23.83120000
25.09999869	0.00000000	-23.01919000
25.29999867	0.00000000	-23.06841000
25.49999866	0.00000000	-24.29257000
25.69999865	0.00000000	-26.02116000
25.89999864	0.00000000	-28.21727000
26.09999863	0.00000000	-31.17003000
26.29999862	0.00000000	-34.07357000
26.49999860	0.00000000	-35.70374000
26.69999859	0.00000000	-35.24852000
26.89999858	0.00000000	-32.24040000
27.09999857	0.00000000	-27.14690000
27.29999856	0.00000000	-20.78002000
27.49999854	0.00000000	-14.51156000
27.69999853	0.00000000	-10.27928000
27.89999852	0.00000000	-9.51033400
28.09999851	0.00000000	-12.52461000
28.29999850	0.00000000	-19.80192000
28.49999848	0.00000000	-29.94586000
28.69999847	0.00000000	-40.95103000
28.89999846	0.00000000	-50.22760000
29.09999845	0.00000000	-55.22883000
29.29999844	0.00000000	-54.30610000
29.49999843	0.00000000	-46.56742000
29.69999841	0.00000000	-33.00935000
29.89999840	0.00000000	-16.14173000
30.09999839	0.00000000	-0.55364170
30.29999838	0.00000000	9.59030400
30.49999837	0.00000000	12.08784000
30.69999835	0.00000000	5.61638700
30.89999834	0.00000000	-9.20890700
31.09999833	0.00000000	-29.53371000
31.29999832	0.00000000	-50.68897000
31.49999831	0.00000000	-68.01181000
31.69999829	0.00000000	-77.18996000
31.89999828	0.00000000	-75.04921000
32.09999827	0.00000000	-61.49729000
32.29999826	0.00000000	-39.88681000
32.49999825	0.00000000	-14.46235000
32.69999824	0.00000000	9.12893600
32.89999822	0.00000000	24.77239000
33.09999821	0.00000000	28.59867000
33.29999820	0.00000000	20.09104000
33.49999819	0.00000000	0.57209640
33.69999818	0.00000000	-26.02116000
33.89999816	0.00000000	-53.13115000
34.09999815	0.00000000	-74.74163000
34.29999814	0.00000000	-86.50959000
34.49999813	0.00000000	-84.78100000
34.69999812	0.00000000	-69.64812000
34.89999810	0.00000000	-45.54011000
35.09999809	0.00000000	-17.92569000
35.29999808	0.00000000	7.86171200
35.49999807	0.00000000	25.94734000
35.69999806	0.00000000	31.04084000
35.89999805	0.00000000	22.33022000
36.09999803	0.00000000	3.27263800
36.29999802	0.00000000	-21.75197000
36.49999801	0.00000000	-47.93922000
36.69999800	0.00000000	-68.62697000
36.89999799	0.00000000	-78.82012000
37.09999797	0.00000000	-76.77780000
37.29999796	0.00000000	-63.27509000
37.49999795	0.00000000	-42.17519000
37.69999794	0.00000000	-18.53469000
37.89999793	0.00000000	1.74704700
38.09999791	0.00000000	13.61959000
38.29999790	0.00000000	14.99139000
38.49999789	0.00000000	6.17618100
38.69999788	0.00000000	-9.82406400
38.89999787	0.00000000	-28.67864000
39.09999786	0.00000000	-44.82652000
39.29999784	0.00000000	-54.26304000
39.49999783	0.00000000	-57.25885000
39.69999782	0.00000000	-52.57135000
39.89999781	0.00000000	-41.31397000
40.09999780	0.00000000	-27.85433000
40.29999778	0.00000000	-15.62500000
40.49999777	0.00000000	-8.03395600
40.69999776	0.00000000	-7.06200700
40.89999775	0.00000000	-11.55266000
41.09999774	0.00000000	-19.14370000
41.29999772	0.00000000	-27.60827000
41.49999771	0.00000000	-35.19931000
41.69999770	0.00000000	-39.83760000
41.89999769	0.00000000	-40.29896000
42.09999768	0.00000000	-37.03248000
42.29999767	0.00000000	-31.63140000
42.49999765	0.00000000	-26.58095000
42.69999764	0.00000000	-23.11762000
42.89999763	0.00000000	-21.43824000
43.09999762	0.00000000	-21.79503000
43.29999761	0.00000000	-23.88041000
43.49999759	0.00000000	-26.33489000
43.69999758	0.00000000	-28.46949000
43.89999757	0.00000000	-29.28765000
44.09999756	0.00000000	-28.92470000
44.29999755	0.00000000	-27.70669000
44.49999753	0.00000000	-26.53174000
44.69999752	0.00000000	-26.53174000
44.89999751	0.00000000	-27.80512000
45.09999750	0.00000000	-29.84744000
45.29999749	0.00000000	-31.93282000
45.49999748	0.00000000	-32.75098000
45.69999746	0.00000000	-32.28962000
45.89999745	0.00000000	-30.19808000
46.09999744	0.00000000	-26.84547000
46.29999743	0.00000000	-23.88041000
46.49999742	0.00000000	-21.33981000
46.69999740	0.00000000	-20.16486000
46.89999739	0.00000000	-21.38902000
47.09999738	0.00000000	-24.34178000
47.29999737	0.00000000	-28.16806000
47.49999736	0.00000000	-32.38804000
47.69999734	0.00000000	-35.70374000
47.89999733	0.00000000	-36.97712000
48.09999732	0.00000000	-35.75295000
48.29999731	0.00000000	-32.84941000
48.49999730	0.00000000	-29.43528000
48.69999729	0.00000000	-26.02116000
48.89999727	0.00000000	-23.06841000
49.09999726	0.00000000	-21.38902000
49.29999725	0.00000000	-21.33981000
49.49999724	0.00000000	-22.60704000
49.69999723	0.00000000	-24.75394000
49.89999721	0.00000000	-27.70669000
50.09999720	0.00000000	-30.61023000
50.29999719	0.00000000	-32.38804000
50.49999718	0.00000000	-33.26156000
50.69999717	0.00000000	-33.66142000
50.89999715	0.00000000	-32.80019000
51.09999714	0.00000000	-31.17003000
51.29999713	0.00000000	-29.43528000
51.49999712	0.00000000	-27.70669000
51.69999711	0.00000000	-26.02116000
51.89999710	0.00000000	-24.75394000
52.09999708	0.00000000	-24.29257000
52.29999707	0.00000000	-24.29257000
52.49999706	0.00000000	-24.75394000
52.69999705	0.00000000	-26.02116000
52.89999704	0.00000000	-27.70669000
53.09999702	0.00000000	-29.38607000
53.29999701	0.00000000	-30.70866000
53.49999700	0.00000000	-31.53297000
53.69999699	0.00000000	-31.93282000
53.89999698	0.00000000	-31.07160000
54.09999696	0.00000000	-29.38607000
54.29999695	0.00000000	-27.29453000
54.49999694	0.00000000	-25.15994000
54.69999693	0.00000000	-23.92962000
54.89999692	0.00000000	-23.43135000
55.09999691	0.00000000	-23.88041000
55.29999689	0.00000000	-24.75394000
55.49999688	0.00000000	-26.48253000
55.69999687	0.00000000	-28.92470000
55.89999686	0.00000000	-30.61023000
56.09999685	0.00000000	-31.07160000
56.29999683	0.00000000	-30.65945000
56.49999682	0.00000000	-29.38607000
56.69999681	0.00000000	-27.70669000
56.89999680	0.00000000	-25.97195000
57.09999679	0.00000000	-24.29257000
57.29999677	0.00000000	-23.11762000
57.49999676	0.00000000	-23.52362000
57.69999675	0.00000000	-25.60900000
57.89999674	0.00000000	-28.11885000
58.09999673	0.00000000	-30.70866000
58.29999672	0.00000000	-32.75098000
58.49999670	0.00000000	-33.61220000
58.69999669	0.00000000	-32.75098000
58.89999668	0.00000000	-30.65945000
59.09999667	0.00000000	-27.65748000
59.29999666	0.00000000	-24.34178000
59.49999664	0.00000000	-21.79503000
59.69999663	0.00000000	-20.97687000
59.89999662	0.00000000	-21.79503000
60.09999661	0.00000000	-24.34178000
60.29999660	0.00000000	-27.70669000
60.49999658	0.00000000	-31.12082000
60.69999657	0.00000000	-34.07357000
60.89999656	0.00000000	-35.75295000
61.09999655	0.00000000	-35.70374000
61.29999654	0.00000000	-33.61220000
61.49999653	0.00000000	-29.89665000
61.69999651	0.00000000	-26.53174000
61.89999650	0.00000000	-24.34178000
62.09999649	0.00000000	-23.01919000
62.29999648	0.00000000	-22.65625000
62.49999647	0.00000000	-23.47441000
62.69999645	0.00000000	-25.60900000
62.89999644	0.00000000	-28.11885000
63.09999643	0.00000000	-30.70866000
63.29999642	0.00000000	-32.80019000
63.49999641	0.00000000	-34.07357000
63.69999639	0.00000000	-34.07357000
63.89999638	0.00000000	-32.89862000
64.09999637	0.00000000	-31.63140000
64.29999636	0.00000000	-30.70866000
64.49999635	0.00000000	-29.43528000
64.69999634	0.00000000	-28.11885000
64.89999632	0.00000000	-26.79011000
65.09999631	0.00000000	-24.70472000
65.29999630	0.00000000	-23.11762000
65.49999629	0.00000000	-23.06841000
65.69999628	0.00000000	-24.34178000
65.89999626	0.00000000	-26.43332000
66.09999625	0.00000000	-29.07234000
66.29999624	0.00000000	-32.03740000
66.49999623	0.00000000	-35.39616000
66.69999622	0.00000000	-37.43848000
66.89999620	0.00000000	-37.48769000
67.09999619	0.00000000	-35.75295000
67.29999618	0.00000000	-32.28962000
67.49999617	0.00000000	-27.24532000
67.69999616	0.00000000	-21.79503000
67.89999615	0.00000000	-18.02411000
68.09999613	0.00000000	-16.65231000
68.29999612	0.00000000	-17.56274000
68.49999611	0.00000000	-20.52165000
68.69999610	0.00000000	-25.60900000
68.89999609	0.00000000	-31.12082000
69.09999607	0.00000000	-36.21432000
69.29999606	0.00000000	-39.98523000
69.49999605	0.00000000	-40.80339000
69.69999604	0.00000000	-38.71186000
69.89999603	0.00000000	-34.07357000
70.09999601	0.00000000	-28.16806000
70.29999600	0.00000000	-22.65625000
70.49999599	0.00000000	-18.38090000
70.69999598	0.00000000	-16.28937000
70.89999597	0.00000000	-16.69537000
71.09999596	0.00000000	-19.65428000
71.29999594	0.00000000	-24.29257000
71.49999593	0.00000000	-29.38607000
71.69999592	0.00000000	-34.07357000
71.89999591	0.00000000	-37.43848000
72.09999590	0.00000000	-38.71186000
72.29999588	0.00000000	-37.43848000
72.49999587	0.00000000	-34.12278000
72.69999586	0.00000000	-29.84744000
72.89999585	0.00000000	-25.60900000
73.09999584	0.00000000	-21.79503000
73.29999582	0.00000000	-19.70349000
73.49999581	0.00000000	-19.65428000
73.69999580	0.00000000	-21.38902000
73.89999579	0.00000000	-24.75394000
74.09999578	0.00000000	-28.97392000
74.29999577	0.00000000	-32.80019000
74.49999575	0.00000000	-35.75295000
74.69999574	0.00000000	-37.02633000
74.89999573	0.00000000	-36.21432000
75.09999572	0.00000000	-34.07357000
75.29999571	0.00000000	-30.65945000
75.49999569	0.00000000	-26.48253000
75.69999568	0.00000000	-23.11762000
75.89999567	0.00000000	-21.38902000
76.09999566	0.00000000	-21.38902000
76.29999565	0.00000000	-23.11762000
76.49999563	0.00000000	-26.53174000
76.69999562	0.00000000	-31.12082000
76.89999561	0.00000000	-35.34695000
77.09999560	0.00000000	-37.85064000
77.29999559	0.00000000	-38.29970000
77.49999558	0.00000000	-36.16510000
77.69999556	0.00000000	-32.33883000
77.89999555	0.00000000	-27.24532000
78.09999554	0.00000000	-21.84424000
78.29999553	0.00000000	-18.47933000
78.49999552	0.00000000	-17.97490000
78.69999550	0.00000000	-19.75271000
78.89999549	0.00000000	-23.98499000
79.09999548	0.00000000	-30.24729000
79.29999547	0.00000000	-35.75910000
79.49999546	0.00000000	-39.68380000
79.69999544	0.00000000	-42.12598000
79.89999543	0.00000000	-41.62155000
80.09999542	0.00000000	-37.43848000
80.29999541	0.00000000	-31.12082000
80.49999540	0.00000000	-24.34178000
80.69999539	0.00000000	-18.38090000
80.89999537	0.00000000	-14.60999000
81.09999536	0.00000000	-13.74262000
81.29999535	0.00000000	-16.33858000
81.49999534	0.00000000	-21.79503000
81.69999533	0.00000000	-29.02313000
81.89999531	0.00000000	-36.16510000
82.09999530	0.00000000	-41.71383000
82.29999529	0.00000000	-44.21752000
82.49999528	0.00000000	-43.44857000
82.69999527	0.00000000	-39.58538000
82.89999525	0.00000000	-33.66756000
83.09999524	0.00000000	-26.43332000
83.29999523	0.00000000	-19.70349000
83.49999522	0.00000000	-15.01599000
83.69999521	0.00000000	-13.28740000
83.89999520	0.00000000	-14.56078000
84.09999518	0.00000000	-18.38090000
84.29999517	0.00000000	-24.34178000
84.49999516	0.00000000	-31.07160000
84.69999515	0.00000000	-37.08169000
84.89999514	0.00000000	-41.31397000
85.09999512	0.00000000	-43.44857000
85.29999511	0.00000000	-42.53814000
85.49999510	0.00000000	-38.76107000
85.69999509	0.00000000	-32.84941000
85.89999508	0.00000000	-26.48253000
86.09999506	0.00000000	-20.87844000
86.29999505	0.00000000	-16.24016000
86.49999504	0.00000000	-13.74262000
86.69999503	0.00000000	-14.56078000
86.89999502	0.00000000	-17.92569000
87.09999501	0.00000000	-23.06841000
87.29999499	0.00000000	-29.43528000
87.49999498	0.00000000	-35.75295000
87.69999497	0.00000000	-40.44660000
87.89999496	0.00000000	-42.58735000
88.09999495	0.00000000	-42.18134000
88.29999493	0.00000000	-39.17323000
88.49999492	0.00000000	-34.12278000
88.69999491	0.00000000	-28.16806000
88.89999490	0.00000000	-22.65625000
89.09999489	0.00000000	-18.43012000
89.29999487	0.00000000	-16.75074000
89.49999486	0.00000000	-17.97490000
89.69999485	0.00000000	-21.33981000
89.89999484	0.00000000	-26.02116000
90.09999483	0.00000000	-31.12082000
90.29999482	0.00000000	-35.75910000
90.49999480	0.00000000	-38.76107000
90.69999479	0.00000000	-39.63459000
90.89999478	0.00000000	-38.76107000
91.09999477	0.00000000	-35.80832000
91.29999476	0.00000000	-31.63140000
91.49999474	0.00000000	-27.75590000
91.69999473	0.00000000	-24.34178000
91.89999472	0.00000000	-21.79503000
92.09999471	0.00000000	-20.97687000
92.29999470	0.00000000	-21.79503000
92.49999468	0.00000000	-24.34178000
92.69999467	0.00000000	-27.65748000
92.89999466	0.00000000	-30.70866000
93.09999465	0.00000000	-33.21235000
93.29999464	0.00000000	-34.88558000
93.49999463	0.00000000	-34.53494000
93.69999461	0.00000000	-33.35999000
93.89999460	0.00000000	-32.43725000
94.09999459	0.00000000	-31.12082000
94.29999458	0.00000000	-29.48450000
94.49999457	0.00000000	-28.16806000
94.69999455	0.00000000	-27.29453000
94.89999454	0.00000000	-26.43332000
95.09999453	0.00000000	-26.07037000
95.29999452	0.00000000	-26.43332000
95.49999451	0.00000000	-27.29453000
95.69999449	0.00000000	-28.11885000
95.89999448	0.00000000	-29.02313000
96.09999447	0.00000000	-29.84744000
96.29999446	0.00000000	-30.75787000
96.49999445	0.00000000	-31.53297000
96.69999444	0.00000000	-31.98204000
96.89999442	0.00000000	-31.58218000
97.09999441	0.00000000	-31.17003000
97.29999440	0.00000000	-30.65945000
97.49999439	0.00000000	-29.43528000
97.69999438	0.00000000	-28.21727000
97.89999436	0.00000000	-27.75590000
98.09999435	0.00000000	-27.70669000
98.29999434	0.00000000	-27.70669000
98.49999433	0.00000000	-27.75590000
98.69999432	0.00000000	-28.21727000
98.89999430	0.00000000	-29.43528000
99.09999429	0.00000000	-30.65945000
99.29999428	0.00000000	-31.12082000
99.49999427	0.00000000	-31.17003000
99.69999426	0.00000000	-31.17003000
99.89999425	0.00000000	-31.12082000
100.09999423	0.00000000	-30.70866000
100.29999422	0.00000000	-29.84744000
100.49999421	0.00000000	-28.97392000
100.69999420	0.00000000	-27.70669000
100.89999419	0.00000000	-26.48253000
101.09999417	0.00000000	-26.07037000
101.29999416	0.00000000	-26.48253000
101.49999415	0.00000000	-27.75590000
101.69999414	0.00000000	-29.38607000
101.89999413	0.00000000	-30.65945000
102.09999411	0.00000000	-31.12082000
102.29999410	0.00000000	-31.17003000
102.49999409	0.00000000	-31.12082000
102.69999408	0.00000000	-30.70866000
102.89999407	0.00000000	-29.84744000
103.09999406	0.00000000	-28.97392000
103.29999404	0.00000000	-27.70669000
103.49999403	0.00000000	-26.53174000
103.69999402	0.00000000	-26.48253000
103.89999401	0.00000000	-27.29453000
104.09999400	0.00000000	-28.11885000
104.29999398	0.00000000	-29.02313000
104.49999397	0.00000000	-29.84744000
104.69999396	0.00000000	-30.70866000
104.89999395	0.00000000	-31.12082000
105.09999394	0.00000000	-31.12082000
105.29999392	0.00000000	-30.70866000
105.49999391	0.00000000	-29.84744000
105.69999390	0.00000000	-29.02313000
105.89999389	0.00000000	-28.16806000
106.09999388	0.00000000	-27.75590000
