Time	Channel A	Channel B	Channel C
(us)	(V)	(mV)	(mV)

-4.49999956	0.00000000	-53.75861000	-12.62918000
-4.29999957	0.00000000	-53.75861000	-12.62918000
-4.09999958	0.00000000	-53.75861000	-12.62918000
-3.89999959	0.00000000	-53.75861000	-12.62918000
-3.69999960	0.00000000	-53.71555000	-12.62918000
-3.49999962	0.00000000	-53.38336000	-12.58612000
-3.29999963	0.00000000	-53.01427000	-12.25394000
-3.09999964	0.00000000	-53.38336000	-11.84178000
-2.89999965	0.00000000	-53.71555000	-11.87869000
-2.69999966	0.00000000	-53.75861000	-11.84178000
-2.49999968	0.00000000	-53.75861000	-12.21087000
-2.29999969	0.00000000	-53.75861000	-12.21087000
-2.09999970	0.00000000	-53.75861000	-11.88484000
-1.89999971	0.00000000	-53.75861000	-12.21087000
-1.69999972	0.00000000	-53.75861000	-12.16166000
-1.49999973	0.00000000	-53.75861000	-11.51575000
-1.29999975	0.00000000	-53.75861000	-11.46653000
-1.09999976	0.00000000	-53.75861000	-11.83563000
-0.89999977	0.00000000	-53.75861000	-11.84178000
-0.69999978	0.00000000	-53.75861000	-12.21087000
-0.49999979	0.00000000	-53.75861000	-12.21087000
-0.29999981	0.31803640	-53.75861000	-11.88484000
-0.09999982	0.63668800	-53.75861000	-12.25394000
0.10000017	0.95533960	-53.75861000	-12.58612000
0.30000016	1.11466500	-53.75861000	-12.62918000
0.50000015	0.79601380	-53.75861000	-12.62918000
0.70000013	0.31803640	-53.75861000	-12.62918000
0.90000012	-0.47736220	-53.75861000	-12.62918000
1.10000011	-1.59264300	-53.75861000	-12.62918000
1.30000010	-2.38927200	-53.75861000	-12.62918000
1.50000009	-2.70792300	-53.75861000	-12.58612000
1.70000008	-2.38927200	-53.75861000	-12.21087000
1.90000006	-1.27399100	-53.75861000	-11.51575000
2.10000005	0.63668800	-53.75861000	-11.51575000
2.30000004	2.70792300	-53.75861000	-12.21087000
2.50000003	4.61921700	-53.75861000	-12.58612000
2.70000002	5.25652100	-53.75861000	-12.62918000
2.90000000	4.77854300	-53.75861000	-12.62918000
3.09999999	2.86724900	-53.75861000	-12.62918000
3.29999998	-0.15871060	-53.75861000	-12.62918000
3.49999997	-3.66326300	-53.75861000	-12.62918000
3.69999996	-6.53112700	-53.75861000	-12.58612000
3.89999994	-7.96444400	-53.75861000	-12.21087000
4.09999993	-7.32714100	-53.75861000	-11.46653000
4.29999992	-4.77854300	-53.75861000	-11.09129000
4.49999991	-0.79601380	-53.75861000	-11.04823000
4.69999990	3.50393700	-53.75861000	-11.09129000
4.89999989	7.32714100	-53.75861000	-11.46653000
5.09999987	9.23905000	-53.75861000	-12.21087000
5.29999986	9.07972400	-53.75861000	-12.58612000
5.49999985	6.37180100	-53.75861000	-12.67224000
5.69999984	2.22994600	-53.75861000	-13.00443000
5.89999983	-2.54859700	-53.75861000	-13.37352000
6.09999981	-6.69045300	-53.75861000	-12.96137000
6.29999980	-9.07972400	-53.75861000	-12.25394000
6.49999979	-9.23905000	-53.75861000	-11.46653000
6.69999978	-7.00848900	-53.75861000	-11.09129000
6.89999977	-3.18590100	-53.75861000	-11.04823000
7.09999975	1.11466500	-53.75861000	-11.09129000
7.29999974	4.93786900	-53.75861000	-11.46653000
7.49999973	7.32714100	-53.75861000	-12.21087000
7.69999972	7.64579200	-53.75861000	-12.58612000
7.89999971	6.21247500	-53.75861000	-12.62918000
8.09999970	3.34522600	-53.75861000	-12.62918000
8.29999968	0.00000000	-53.75861000	-12.62918000
8.49999967	-2.86724900	-53.75861000	-12.62918000
8.69999966	-4.77854300	-53.75861000	-12.62918000
8.89999965	-5.25652100	-53.75861000	-12.58612000
9.09999964	-4.30056600	-53.75861000	-12.25394000
9.29999962	-2.54859700	-53.75861000	-11.84178000
9.49999961	-0.63668800	-53.75861000	-11.87869000
9.69999960	1.11466500	-53.75861000	-11.84178000
9.89999959	2.22994600	-53.75861000	-12.25394000
10.09999958	2.54859700	-53.75861000	-12.53691000
10.29999956	2.22994600	-53.75861000	-12.25394000
10.49999955	1.43331700	-53.75861000	-11.88484000
10.69999954	0.47736220	-53.75861000	-12.25394000
10.89999953	-0.31803640	-53.75861000	-12.58612000
11.09999952	-0.79601380	-53.75861000	-12.62918000
11.29999951	-0.95533960	-53.75861000	-12.62918000
11.49999949	-0.95533960	-53.75861000	-12.58612000
11.69999948	-0.63668800	-53.75861000	-12.25394000
11.89999947	-0.31803640	-53.75861000	-11.88484000
12.09999946	-0.15871060	-53.75861000	-12.25394000
12.29999945	-0.15871060	-53.71555000	-12.53691000
12.49999943	-0.15871060	-53.38336000	-12.25394000
12.69999942	0.00000000	-53.01427000	-11.88484000
12.89999941	0.00000000	-53.38336000	-12.25394000
13.09999940	0.00000000	-53.66634000	-12.58612000
13.29999939	0.00000000	-53.38336000	-12.58612000
13.49999937	0.00000000	-53.01427000	-12.25394000
13.69999936	0.00000000	-53.38336000	-11.88484000
13.89999935	0.00000000	-53.71555000	-12.25394000
14.09999934	-0.15871060	-53.80167000	-12.58612000
14.29999933	-0.15871060	-54.13385000	-12.62918000
14.49999932	-0.15871060	-54.45374000	-12.62918000
14.69999930	0.00000000	-53.75861000	-12.62918000
14.89999929	0.00000000	-53.06348000	-12.62918000
15.09999928	0.00000000	-53.38336000	-12.62918000
15.29999927	0.00000000	-53.71555000	-12.62918000
15.49999926	0.00000000	-53.75861000	-12.62918000
15.69999924	0.00000000	-53.75861000	-12.62918000
15.89999923	0.00000000	-53.75861000	-12.62918000
16.09999922	0.00000000	-53.75861000	-12.62918000
16.29999921	0.00000000	-53.75861000	-12.62918000
16.49999920	0.00000000	-53.75861000	-12.62918000
16.69999919	-0.15871060	-53.71555000	-12.58612000
16.89999917	0.00000000	-53.34030000	-12.25394000
17.09999916	0.00000000	-52.55290000	-11.88484000
17.29999915	0.00000000	-51.80241000	-12.21087000
17.49999914	0.00000000	-51.06422000	-12.16166000
17.69999913	0.00000000	-51.06422000	-11.51575000
17.89999911	0.00000000	-51.80241000	-11.51575000
18.09999910	0.00000000	-52.59596000	-12.21087000
18.29999909	0.00000000	-53.85088000	-12.58612000
18.49999908	0.00000000	-55.71481000	-12.58612000
18.69999907	0.00000000	-57.61565000	-12.21087000
18.89999905	0.00000000	-58.36614000	-11.51575000
19.09999904	0.00000000	-58.03395000	-11.51575000
19.29999903	0.00000000	-56.78519000	-12.21087000
19.49999902	0.00000000	-54.41068000	-12.58612000
19.69999901	0.00000000	-50.55364000	-12.62918000
19.89999900	0.00000000	-46.36442000	-12.62918000
20.09999898	0.00000000	-43.24557000	-12.62918000
20.29999897	0.00000000	-41.70767000	-12.62918000
20.49999896	0.00000000	-42.21825000	-12.62918000
20.69999895	0.00000000	-45.75541000	-12.62918000
20.89999894	0.00000000	-52.31299000	-12.58612000
21.09999892	0.00000000	-60.03937000	-12.25394000
21.29999891	0.00000000	-67.39050000	-11.88484000
21.49999890	0.00000000	-72.74237000	-12.25394000
21.69999889	0.00000000	-74.18799000	-12.58612000
21.89999888	0.00000000	-70.65083000	-12.62918000
22.09999886	0.00000000	-62.13705000	-12.62918000
22.29999885	0.00000000	-50.50443000	-12.62918000
22.49999884	0.00000000	-38.12746000	-12.62918000
22.69999883	0.00000000	-27.38066000	-12.58612000
22.89999882	0.00000000	-21.69660000	-12.21087000
23.09999881	0.00000000	-23.23450000	-11.46653000
23.29999879	0.00000000	-31.84055000	-11.04823000
23.49999878	0.00000000	-46.22293000	-10.62992000
23.69999877	0.00000000	-64.36392000	-9.89173200
23.89999876	0.00000000	-81.62524000	-9.56569900
24.09999875	0.00000000	-93.16560000	-9.89173200
24.29999873	0.00000000	-95.86613000	-10.67298000
24.49999872	0.00000000	-88.84719000	-11.46653000
24.69999871	0.00000000	-73.30216000	-12.67224000
24.89999870	0.00000000	-51.66707000	-14.21014000
25.09999869	0.00000000	-28.96161000	-15.74188000
25.29999867	0.00000000	-11.23277000	-16.85531000
25.49999866	0.00000000	-2.71899600	-16.85531000
25.69999865	0.00000000	-5.46259800	-15.64960000
25.89999864	0.00000000	-19.00221000	-13.28125000
26.09999863	0.00000000	-40.63730000	-9.43036400
26.29999862	0.00000000	-65.39124000	-5.24729300
26.49999860	0.00000000	-87.77067000	-2.12844500
26.69999859	0.00000000	-102.79900000	-0.59670270
26.89999858	0.00000000	-106.25000000	-1.06422200
27.09999857	0.00000000	-97.40403000	-4.21998000
27.29999856	0.00000000	-78.51254000	-10.02707000
27.49999854	0.00000000	-54.22613000	-17.36589000
27.69999853	0.00000000	-30.58563000	-24.71087000
27.89999852	0.00000000	-12.39542000	-30.42569000
28.09999851	0.00000000	-3.13730300	-32.70177000
28.29999850	0.00000000	-5.41953700	-30.29035000
28.49999848	0.00000000	-18.11639000	-23.36368000
28.69999847	0.00000000	-37.80758000	-12.86909000
28.89999846	0.00000000	-60.18085000	-1.34104300
29.09999845	0.00000000	-79.49064000	9.14739100
29.29999844	0.00000000	-91.63385000	15.98794000
29.49999843	0.00000000	-95.17101000	17.51968000
29.69999841	0.00000000	-90.13902000	12.37082000
29.89999840	0.00000000	-77.39296000	1.21186000
30.09999839	0.00000000	-60.08243000	-13.88410000
30.29999838	0.00000000	-42.63656000	-29.26919000
30.49999837	0.00000000	-28.67864000	-41.66461000
30.69999835	0.00000000	-20.49089000	-48.17913000
30.89999834	0.00000000	-19.69734000	-47.38558000
31.09999833	0.00000000	-25.79970000	-38.84104000
31.29999832	0.00000000	-37.00787000	-24.15723000
31.49999831	0.00000000	-50.55364000	-6.40378900
31.69999829	0.00000000	-63.71801000	10.59301000
31.89999828	0.00000000	-73.81274000	22.95768000
32.09999827	0.00000000	-78.88779000	28.34645000
32.29999826	0.00000000	-78.55560000	25.23376000
32.49999825	0.00000000	-73.11761000	14.08095000
32.69999824	0.00000000	-63.85334000	-2.13459600
32.89999822	0.00000000	-52.68823000	-19.97416000
33.09999821	0.00000000	-42.63656000	-36.18971000
33.29999820	0.00000000	-35.98671000	-47.38558000
33.49999819	0.00000000	-33.23696000	-50.87352000
33.69999818	0.00000000	-34.81791000	-46.22293000
33.89999816	0.00000000	-40.59424000	-34.32578000
34.09999815	0.00000000	-49.01575000	-18.11639000
34.29999814	0.00000000	-57.48031000	-1.84547200
34.49999813	0.00000000	-63.71801000	12.13091000
34.69999812	0.00000000	-66.83685000	20.95841000
34.89999810	0.00000000	-66.46161000	22.49631000
35.09999809	0.00000000	-62.64764000	16.35704000
35.29999808	0.00000000	-56.87746000	4.04773600
35.49999807	0.00000000	-50.68897000	-10.96211000
35.69999806	0.00000000	-45.33710000	-25.27067000
35.89999805	0.00000000	-42.64272000	-35.72219000
36.09999803	0.00000000	-43.33784000	-40.37278000
36.29999802	0.00000000	-46.40748000	-38.41658000
36.49999801	0.00000000	-51.01501000	-29.95817000
36.69999800	0.00000000	-56.03469000	-17.36589000
36.89999799	0.00000000	-59.85482000	-4.63828700
37.09999797	0.00000000	-61.80487000	4.98277500
37.29999796	0.00000000	-61.01746000	9.62106200
37.49999795	0.00000000	-57.99089000	7.72022600
37.69999794	0.00000000	-53.75861000	0.51673230
37.89999793	0.00000000	-49.48326000	-9.47342500
38.09999791	0.00000000	-45.98917000	-19.46358000
38.29999790	0.00000000	-43.71309000	-26.71629000
38.49999789	0.00000000	-43.71309000	-29.02928000
38.69999788	0.00000000	-45.98917000	-25.59670000
38.89999787	0.00000000	-49.48326000	-17.97490000
39.09999786	0.00000000	-53.75861000	-8.40305000
39.29999784	0.00000000	-57.94783000	0.04921259
39.49999783	0.00000000	-60.73450000	5.02583600
39.69999782	0.00000000	-61.90329000	5.34571800
39.89999781	0.00000000	-61.89714000	0.00615157
40.09999780	0.00000000	-59.90403000	-9.14739100
40.29999778	0.00000000	-56.45300000	-18.76845000
40.49999777	0.00000000	-52.17765000	-26.80241000
40.69999776	0.00000000	-47.94537000	-30.61023000
40.89999775	0.00000000	-44.82652000	-28.75861000
41.09999774	0.00000000	-43.24557000	-22.61934000
41.29999772	0.00000000	-43.24557000	-13.74262000
41.49999771	0.00000000	-44.82652000	-4.17691900
41.69999770	0.00000000	-47.94537000	3.11884800
41.89999769	0.00000000	-52.17765000	6.23154500
42.09999768	0.00000000	-56.40993000	4.69365100
42.29999767	0.00000000	-59.52879000	-1.02116100
42.49999765	0.00000000	-61.10974000	-9.09817800
42.69999764	0.00000000	-61.10974000	-17.18750000
42.89999763	0.00000000	-59.57185000	-23.78199000
43.09999762	0.00000000	-56.92052000	-27.22072000
43.29999761	0.00000000	-54.17691000	-26.89468000
43.49999759	0.00000000	-51.84547000	-23.03765000
43.69999758	0.00000000	-49.90157000	-16.94759000
43.89999757	0.00000000	-49.10802000	-10.40231000
44.09999756	0.00000000	-49.01575000	-5.37647600
44.29999755	0.00000000	-49.01575000	-2.59596400
44.49999753	0.00000000	-49.05881000	-2.22071800
44.69999752	0.00000000	-49.43405000	-4.08464600
44.89999751	0.00000000	-50.17839000	-7.51722400
45.09999750	0.00000000	-50.59670000	-11.00517000
45.29999749	0.00000000	-51.06422000	-14.16092000
45.49999748	0.00000000	-52.26993000	-16.81225000
45.69999746	0.00000000	-54.22613000	-17.97490000
45.89999745	0.00000000	-56.96358000	-17.23056000
46.09999744	0.00000000	-59.99015000	-15.36663000
46.29999743	0.00000000	-62.31545000	-13.00443000
46.49999742	0.00000000	-62.97367000	-10.67298000
46.69999740	0.00000000	-61.42962000	-8.35383800
46.89999739	0.00000000	-57.11737000	-6.86515700
47.09999738	0.00000000	-51.38410000	-6.82209600
47.29999737	0.00000000	-45.15871000	-7.98474400
47.49999736	0.00000000	-40.17593000	-9.89173200
47.69999734	0.00000000	-37.47539000	-12.21087000
47.89999733	0.00000000	-37.94291000	-14.16092000
48.09999732	0.00000000	-42.17519000	-15.74188000
48.29999731	0.00000000	-49.15108000	-16.81225000
48.49999730	0.00000000	-57.29576000	-16.43701000
48.69999729	0.00000000	-65.34202000	-14.53617000
48.89999727	0.00000000	-70.69389000	-12.21087000
49.09999726	0.00000000	-71.49360000	-9.47342500
49.29999725	0.00000000	-67.99950000	-6.82209600
49.49999724	0.00000000	-60.64837000	-5.29035400
49.69999723	0.00000000	-51.01501000	-5.29035400
49.89999721	0.00000000	-41.79995000	-6.82209600
50.09999720	0.00000000	-35.24237000	-9.55954600
50.29999719	0.00000000	-33.28617000	-13.04749000
50.49999718	0.00000000	-35.98671000	-16.90453000
50.69999717	0.00000000	-42.55044000	-19.92495000
50.89999715	0.00000000	-51.80241000	-21.08760000
51.09999714	0.00000000	-60.97440000	-19.92495000
51.29999713	0.00000000	-67.58119000	-16.85531000
51.49999712	0.00000000	-69.91264000	-12.62918000
51.69999711	0.00000000	-67.99950000	-8.40305000
51.89999710	0.00000000	-62.22933000	-5.29035400
52.09999708	0.00000000	-54.17691000	-3.70939900
52.29999707	0.00000000	-46.45054000	-3.70939900
52.49999706	0.00000000	-40.68651000	-5.29035400
52.69999705	0.00000000	-38.40428000	-8.40305000
52.89999704	0.00000000	-40.68651000	-12.58612000
53.09999702	0.00000000	-46.36442000	-16.43701000
53.29999701	0.00000000	-53.29109000	-18.76845000
53.49999700	0.00000000	-59.48573000	-19.55585000
53.69999699	0.00000000	-63.71801000	-18.39321000
53.89999698	0.00000000	-64.83144000	-15.74188000
54.09999696	0.00000000	-62.18011000	-12.67224000
54.29999695	0.00000000	-56.82825000	-9.98400600
54.49999694	0.00000000	-50.68897000	-8.44611200
54.69999693	0.00000000	-45.29404000	-8.40305000
54.89999692	0.00000000	-42.21825000	-9.51648500
55.09999691	0.00000000	-42.17519000	-11.04823000
55.29999689	0.00000000	-44.86958000	-12.58612000
55.49999688	0.00000000	-49.48326000	-13.69956000
55.69999687	0.00000000	-54.87204000	-13.69956000
55.89999686	0.00000000	-59.43651000	-12.53691000
56.09999685	0.00000000	-61.80487000	-10.67298000
56.29999683	0.00000000	-61.43578000	-8.77214500
56.49999682	0.00000000	-59.11048000	-8.07086500
56.69999681	0.00000000	-54.87204000	-8.82135800
56.89999680	0.00000000	-49.94463000	-11.14050000
57.09999679	0.00000000	-46.45054000	-14.16092000
57.29999677	0.00000000	-44.86958000	-16.90453000
57.49999676	0.00000000	-45.24483000	-18.76845000
57.69999675	0.00000000	-47.52707000	-19.08834000
57.89999674	0.00000000	-50.59670000	-16.76919000
58.09999673	0.00000000	-53.71555000	-12.58612000
58.29999672	0.00000000	-56.40993000	-7.93553100
58.49999670	0.00000000	-57.90477000	-3.66633800
58.69999669	0.00000000	-57.57259000	-0.64591530
58.89999668	0.00000000	-55.71481000	0.04921259
59.09999667	0.00000000	-53.75861000	-2.63902500
59.29999666	0.00000000	-51.80241000	-8.02780400
59.49999664	0.00000000	-49.90157000	-14.53617000
59.69999663	0.00000000	-49.15108000	-20.71235000
59.89999662	0.00000000	-49.48326000	-24.52633000
60.09999661	0.00000000	-50.63976000	-25.31373000
60.29999660	0.00000000	-52.13459000	-22.61934000
60.49999658	0.00000000	-53.29109000	-17.18750000
60.69999657	0.00000000	-53.66634000	-10.25467000
60.89999656	0.00000000	-53.34030000	-2.92199800
61.09999655	0.00000000	-52.55290000	2.38065900
61.29999654	0.00000000	-51.80241000	4.32455700
61.49999653	0.00000000	-51.01501000	2.00541300
61.69999651	0.00000000	-50.68897000	-3.70939900
61.89999650	0.00000000	-51.06422000	-11.09744000
62.09999649	0.00000000	-52.22071000	-18.81152000
62.29999648	0.00000000	-53.71555000	-25.31373000
62.49999647	0.00000000	-54.87204000	-28.38337000
62.69999645	0.00000000	-55.29650000	-27.26993000
62.89999644	0.00000000	-55.29650000	-22.66240000
63.09999643	0.00000000	-54.87204000	-15.69882000
63.29999642	0.00000000	-53.71555000	-7.98474400
63.49999641	0.00000000	-52.17765000	-1.06422200
63.69999639	0.00000000	-50.63976000	3.16190900
63.89999638	0.00000000	-49.48326000	3.58021600
64.09999637	0.00000000	-49.10802000	0.55979330
64.29999636	0.00000000	-49.48326000	-4.87204700
64.49999635	0.00000000	-50.63976000	-11.42347000
64.69999634	0.00000000	-52.22071000	-17.97490000
64.89999632	0.00000000	-54.13385000	-22.61934000
65.09999631	0.00000000	-55.99163000	-24.61860000
65.29999630	0.00000000	-56.36687000	-24.24335000
65.49999629	0.00000000	-55.29650000	-21.50590000
65.69999628	0.00000000	-53.75861000	-16.94759000
65.89999626	0.00000000	-52.22071000	-11.88484000
66.09999625	0.00000000	-51.06422000	-7.60949800
66.29999624	0.00000000	-50.68897000	-4.08464600
66.49999623	0.00000000	-51.06422000	-2.17150600
66.69999622	0.00000000	-52.17765000	-2.08538400
66.89999620	0.00000000	-53.34030000	-3.29109200
67.09999619	0.00000000	-54.13385000	-5.61638700
67.29999618	0.00000000	-54.87204000	-9.05511800
67.49999617	0.00000000	-54.82898000	-12.16781000
67.69999616	0.00000000	-53.66634000	-14.62844000
67.89999615	0.00000000	-51.75935000	-17.36589000
68.09999613	0.00000000	-49.43405000	-19.97416000
68.29999612	0.00000000	-47.57013000	-21.13066000
68.49999611	0.00000000	-46.82579000	-20.39247000
68.69999610	0.00000000	-48.03149000	-18.43627000
68.89999609	0.00000000	-51.06422000	-15.27436000
69.09999607	0.00000000	-54.92125000	-11.04823000
69.29999606	0.00000000	-58.36614000	-6.77903500
69.49999605	0.00000000	-60.69144000	-3.29109200
69.69999604	0.00000000	-61.06668000	-0.97194880
69.89999603	0.00000000	-59.52879000	-0.63976370
70.09999601	0.00000000	-56.36687000	-2.54675200
70.29999600	0.00000000	-51.75935000	-6.44685000
70.49999599	0.00000000	-46.73966000	-11.42347000
70.69999598	0.00000000	-42.91954000	-16.48622000
70.89999597	0.00000000	-40.96949000	-20.30020000
71.09999596	0.00000000	-41.79995000	-22.29331000
71.29999594	0.00000000	-45.24483000	-21.88115000
71.49999593	0.00000000	-50.63976000	-19.54970000
71.69999592	0.00000000	-56.40993000	-15.32357000
71.89999591	0.00000000	-61.06668000	-10.35310000
72.09999590	0.00000000	-63.80413000	-6.44685000
72.29999588	0.00000000	-64.17938000	-3.70939900
72.49999587	0.00000000	-62.22318000	-2.59596400
72.69999586	0.00000000	-57.99089000	-3.70939900
72.89999585	0.00000000	-52.59596000	-6.40378900
73.09999584	0.00000000	-47.57013000	-9.84867000
73.29999582	0.00000000	-43.66388000	-13.28125000
73.49999581	0.00000000	-41.75689000	-15.18824000
73.69999580	0.00000000	-42.13213000	-15.27436000
73.89999579	0.00000000	-44.82652000	-14.16092000
74.09999578	0.00000000	-49.05881000	-12.67224000
74.29999577	0.00000000	-53.71555000	-11.51575000
74.49999575	0.00000000	-57.94783000	-11.14050000
74.69999574	0.00000000	-60.64222000	-11.51575000
74.89999573	0.00000000	-61.06668000	-12.62918000
75.09999572	0.00000000	-59.52879000	-13.74262000
75.29999571	0.00000000	-56.50221000	-14.16708000
75.49999569	0.00000000	-53.06348000	-14.11786000
75.69999568	0.00000000	-50.68897000	-13.28125000
75.89999567	0.00000000	-49.05881000	-10.96211000
76.09999566	0.00000000	-47.94537000	-7.93553100
76.29999565	0.00000000	-47.94537000	-5.24729300
76.49999563	0.00000000	-49.05881000	-3.75246000
76.69999562	0.00000000	-50.55364000	-4.17076700
76.89999561	0.00000000	-51.71013000	-6.86515700
77.09999560	0.00000000	-52.13459000	-11.09129000
77.29999559	0.00000000	-52.17765000	-15.74188000
