Time	Channel A	Channel B
(us)	(V)	(mV)

-4.49999956	0.00000000	9.06742000
-4.29999957	0.00000000	8.70447700
-4.09999958	0.00000000	8.65526600
-3.89999959	0.00000000	8.65526600
-3.69999960	0.00000000	8.65526600
-3.49999962	0.00000000	8.65526600
-3.29999963	0.00000000	8.65526600
-3.09999964	0.00000000	8.65526600
-2.89999965	0.00000000	8.65526600
-2.69999966	0.00000000	8.65526600
-2.49999968	0.00000000	8.65526600
-2.29999969	0.00000000	8.65526600
-2.09999970	0.00000000	8.65526600
-1.89999971	0.00000000	8.65526600
-1.69999972	0.00000000	8.65526600
-1.49999973	0.00000000	8.65526600
-1.29999975	0.00000000	8.65526600
-1.09999976	0.00000000	8.65526600
-0.89999977	0.00000000	8.65526600
-0.69999978	0.00000000	8.65526600
-0.49999979	0.00000000	8.70447700
-0.29999981	0.35125490	9.11663300
-0.09999982	0.70250980	9.92864100
0.10000017	1.05376500	10.34080000
0.30000016	1.05376500	10.39001000
0.50000015	0.70250980	10.34080000
0.70000013	0.00000000	9.92864100
0.90000012	-0.87844490	9.11663300
1.10000011	-1.93282500	8.65526600
1.30000010	-2.63533500	8.24311000
1.50000009	-2.81127000	7.84325700
1.70000008	-2.10814500	8.24311000
1.90000006	-0.70250980	8.60605200
2.10000005	1.22970000	8.65526600
2.30000004	3.33846000	8.65526600
2.50000003	4.91941500	8.60605200
2.70000002	5.27128500	8.19389700
2.90000000	4.39283900	7.38804100
3.09999999	1.93282500	6.97588500
3.29999998	-1.40563500	6.97588500
3.49999997	-4.74409400	7.38804100
3.69999996	-7.20410900	8.24311000
3.89999994	-8.08255400	9.06742000
4.09999993	-6.85223900	9.97785300
4.29999992	-3.68971500	10.75295000
4.49999991	0.52657480	11.15280000
4.69999990	4.74409400	10.34080000
4.89999989	8.08255400	9.11663300
5.09999987	9.48818900	8.24311000
5.29999986	8.43380900	7.38804100
5.49999985	5.27128500	6.97588500
5.69999984	0.70250980	6.92667200
5.89999983	-4.04096900	6.97588500
6.09999981	-7.73129900	7.38804100
6.29999980	-9.48818900	8.24311000
6.49999979	-8.78567900	9.06742000
6.69999978	-5.97379400	9.92864100
6.89999977	-1.75689000	10.29158000
7.09999975	2.45940000	9.92864100
7.29999974	5.97379400	9.11663300
7.49999973	7.55536400	8.70447700
7.69999972	7.20410900	8.60605200
7.89999971	5.27128500	8.19389700
8.09999970	2.10814500	7.43725300
8.29999968	-1.22970000	7.43725300
8.49999967	-3.68971500	8.19389700
8.69999966	-5.09534900	8.60605200
8.89999965	-4.91941500	8.65526600
9.09999964	-3.68971500	8.65526600
9.29999962	-1.75689000	8.65526600
9.49999961	0.17531990	8.65526600
9.69999960	1.58095500	8.65526600
9.89999959	2.45940000	8.65526600
10.09999958	2.45940000	8.65526600
10.29999956	1.75689000	8.70447700
10.49999955	0.87844490	9.01820900
10.69999954	0.00000000	9.01205700
10.89999953	-0.52657480	7.84325700
11.09999952	-0.87844490	7.48646600
11.29999951	-0.87844490	8.19389700
11.49999949	-0.70250980	8.60605200
11.69999948	-0.52657480	8.65526600
11.89999947	-0.17531990	8.65526600
12.09999946	0.00000000	8.65526600
12.29999945	0.00000000	8.65526600
12.49999943	-0.17531990	8.65526600
12.69999942	-0.17531990	8.65526600
12.89999941	-0.17531990	8.65526600
13.09999940	-0.17531990	8.65526600
13.29999939	0.00000000	8.65526600
13.49999937	-0.17531990	8.65526600
13.69999936	0.00000000	8.65526600
13.89999935	0.00000000	8.65526600
14.09999934	0.00000000	8.65526600
14.29999933	0.00000000	8.65526600
14.49999932	0.00000000	8.65526600
14.69999930	0.00000000	8.65526600
14.89999929	0.00000000	8.65526600
15.09999928	0.00000000	8.65526600
15.29999927	0.00000000	8.65526600
15.49999926	0.00000000	8.65526600
15.69999924	0.00000000	8.65526600
15.89999923	0.00000000	8.65526600
16.09999922	0.00000000	8.65526600
16.29999921	0.00000000	8.65526600
16.49999920	0.00000000	8.65526600
16.69999919	0.00000000	8.65526600
16.89999917	0.00000000	8.65526600
17.09999916	0.00000000	8.65526600
17.29999915	0.00000000	8.65526600
17.49999914	0.00000000	8.65526600
17.69999913	0.00000000	8.65526600
17.89999911	0.00000000	8.65526600
18.09999910	0.00000000	8.65526600
18.29999909	0.00000000	8.65526600
18.49999908	0.00000000	8.70447700
18.69999907	0.00000000	9.06742000
18.89999905	0.00000000	9.46727400
19.09999904	0.00000000	9.06742000
19.29999903	0.00000000	8.75369100
19.49999902	0.00000000	9.06742000
19.69999901	0.00000000	9.46727400
19.89999900	0.00000000	9.06742000
20.09999898	0.00000000	8.65526600
20.29999897	0.00000000	8.24311000
20.49999896	0.00000000	7.84325700
20.69999895	0.00000000	8.24311000
20.89999894	0.00000000	8.65526600
21.09999892	0.00000000	9.06742000
21.29999891	0.00000000	9.46727400
21.49999890	0.00000000	9.06742000
21.69999889	0.00000000	8.70447700
21.89999888	0.00000000	8.65526600
22.09999886	0.00000000	8.65526600
22.29999885	0.00000000	8.65526600
22.49999884	0.00000000	8.65526600
22.69999883	0.00000000	8.65526600
22.89999882	0.00000000	8.65526600
23.09999881	0.00000000	8.65526600
23.29999879	0.00000000	8.60605200
23.49999878	0.00000000	8.19389700
23.69999877	0.00000000	7.38804100
23.89999876	0.00000000	6.97588500
24.09999875	0.00000000	7.02509800
24.29999873	0.00000000	7.84325700
24.49999872	0.00000000	9.52263600
24.69999871	0.00000000	10.75295000
24.89999870	0.00000000	11.70645000
25.09999869	0.00000000	12.48154000
25.29999867	0.00000000	12.83218000
25.49999866	0.00000000	11.55881000
25.69999865	0.00000000	9.06742000
25.89999864	0.00000000	6.46530500
26.09999863	0.00000000	3.51254900
26.29999862	0.00000000	1.01501000
26.49999860	0.00000000	0.19685040
26.69999859	0.00000000	1.06422200
26.89999858	0.00000000	4.12155500
27.09999857	0.00000000	9.11663300
27.29999856	0.00000000	14.71457000
27.49999854	0.00000000	19.81422000
27.69999853	0.00000000	24.34793000
27.89999852	0.00000000	25.47367000
28.09999851	0.00000000	21.65354000
28.29999850	0.00000000	14.05635000
28.49999848	0.00000000	3.87549200
28.69999847	0.00000000	-6.26845500
28.89999846	0.00000000	-14.27165000
29.09999845	0.00000000	-17.98720000
29.29999844	0.00000000	-15.34818000
29.49999843	0.00000000	-6.42224400
29.69999841	0.00000000	7.53567900
29.89999840	0.00000000	23.12992000
30.09999839	0.00000000	36.22662000
30.29999838	0.00000000	43.81766000
30.49999837	0.00000000	43.76845000
30.69999835	0.00000000	35.66683000
30.89999834	0.00000000	20.73696000
31.09999833	0.00000000	1.31643700
31.29999832	0.00000000	-18.03642000
31.49999831	0.00000000	-31.54527000
31.69999829	0.00000000	-36.23277000
31.89999828	0.00000000	-31.09006000
32.09999827	0.00000000	-16.61540000
32.29999826	0.00000000	4.47834600
32.49999825	0.00000000	27.34990000
32.69999824	0.00000000	46.37057000
32.89999822	0.00000000	57.77559000
33.09999821	0.00000000	58.13853000
33.29999820	0.00000000	47.13337000
33.49999819	0.00000000	27.20226000
33.69999818	0.00000000	2.28838600
33.89999816	0.00000000	-21.35212000
34.09999815	0.00000000	-37.86909000
34.29999814	0.00000000	-43.82382000
34.49999813	0.00000000	-37.91830000
34.69999812	0.00000000	-21.81348000
34.89999810	0.00000000	1.06422200
35.09999809	0.00000000	25.98425000
35.29999808	0.00000000	46.72121000
35.49999807	0.00000000	58.55069000
35.69999806	0.00000000	58.95053000
35.89999805	0.00000000	47.13337000
36.09999803	0.00000000	26.54404000
36.29999802	0.00000000	2.84817900
36.49999801	0.00000000	-18.35015000
36.69999800	0.00000000	-32.72023000
36.89999799	0.00000000	-36.94635000
37.09999797	0.00000000	-29.81053000
37.29999796	0.00000000	-13.85950000
37.49999795	0.00000000	6.41609200
37.69999794	0.00000000	25.88582000
37.89999793	0.00000000	40.30511000
38.09999791	0.00000000	46.62893000
38.29999790	0.00000000	43.25787000
38.49999789	0.00000000	31.12697000
38.69999788	0.00000000	14.31471000
38.89999787	0.00000000	-2.15305100
39.09999786	0.00000000	-14.47465000
39.29999784	0.00000000	-19.98031000
39.49999783	0.00000000	-17.93799000
39.69999782	0.00000000	-9.07972400
39.89999781	0.00000000	3.87549200
40.09999780	0.00000000	16.95989000
40.29999778	0.00000000	26.24262000
40.49999777	0.00000000	30.10580000
40.69999776	0.00000000	27.61442000
40.89999775	0.00000000	20.17101000
41.09999774	0.00000000	10.90059000
41.29999772	0.00000000	2.43602300
41.49999771	0.00000000	-3.51870100
41.69999770	0.00000000	-5.61023600
41.89999769	0.00000000	-3.56791300
42.09999768	0.00000000	1.87623000
42.29999767	0.00000000	8.55684000
42.49999765	0.00000000	14.51772000
42.69999764	0.00000000	18.23942000
42.89999763	0.00000000	18.74385000
43.09999762	0.00000000	15.89567000
43.29999761	0.00000000	12.16781000
43.49999759	0.00000000	8.70447700
43.69999758	0.00000000	5.80093500
43.89999757	0.00000000	4.52755900
44.09999756	0.00000000	5.29035400
44.29999755	0.00000000	6.87746000
44.49999753	0.00000000	8.14468500
44.69999752	0.00000000	8.60605200
44.89999751	0.00000000	8.60605200
45.09999750	0.00000000	8.14468500
45.29999749	0.00000000	6.97588500
45.49999748	0.00000000	6.21309000
45.69999746	0.00000000	7.02509800
45.89999745	0.00000000	8.70447700
46.09999744	0.00000000	10.85138000
46.29999743	0.00000000	13.34276000
46.49999742	0.00000000	14.97293000
46.69999740	0.00000000	14.97293000
46.89999739	0.00000000	13.29355000
47.09999738	0.00000000	10.34080000
47.29999737	0.00000000	6.97588500
47.49999736	0.00000000	3.97391700
47.69999734	0.00000000	1.87623000
47.89999733	0.00000000	1.06422200
48.09999732	0.00000000	2.33759800
48.29999731	0.00000000	5.24114100
48.49999730	0.00000000	8.60605200
48.69999729	0.00000000	11.60802000
48.89999727	0.00000000	13.75492000
49.09999726	0.00000000	15.02214000
49.29999725	0.00000000	15.02214000
49.49999724	0.00000000	13.75492000
49.69999723	0.00000000	11.65723000
49.89999721	0.00000000	9.06742000
50.09999720	0.00000000	6.56373000
50.29999719	0.00000000	4.42913300
50.49999718	0.00000000	3.56176100
50.69999717	0.00000000	3.46333600
50.89999715	0.00000000	3.61097400
51.09999714	0.00000000	4.89050100
51.29999713	0.00000000	7.73868000
51.49999712	0.00000000	9.83021600
51.69999711	0.00000000	10.85138000
51.89999710	0.00000000	12.11860000
52.09999708	0.00000000	13.34276000
52.29999707	0.00000000	13.75492000
52.49999706	0.00000000	13.29355000
52.69999705	0.00000000	11.60802000
52.89999704	0.00000000	9.11663300
53.09999702	0.00000000	6.97588500
53.29999701	0.00000000	5.24114100
53.49999700	0.00000000	3.97391700
53.69999699	0.00000000	3.61097400
53.89999698	0.00000000	4.42913300
54.09999696	0.00000000	6.56373000
54.29999695	0.00000000	9.06742000
54.49999694	0.00000000	11.65723000
54.69999693	0.00000000	13.70571000
54.89999692	0.00000000	14.56693000
55.09999691	0.00000000	13.70571000
55.29999689	0.00000000	11.65723000
55.49999688	0.00000000	9.06742000
55.69999687	0.00000000	6.51451700
55.89999686	0.00000000	4.02313000
56.09999685	0.00000000	2.79896600
56.29999683	0.00000000	3.61097400
56.49999682	0.00000000	5.65329700
56.69999681	0.00000000	8.24311000
56.89999680	0.00000000	10.80217000
57.09999679	0.00000000	13.29355000
57.29999677	0.00000000	14.51772000
57.49999676	0.00000000	13.70571000
57.69999675	0.00000000	11.60802000
57.89999674	0.00000000	8.65526600
58.09999673	0.00000000	5.75172200
58.29999672	0.00000000	4.02313000
58.49999670	0.00000000	3.61097400
58.69999669	0.00000000	4.47834600
58.89999668	0.00000000	7.02509800
59.09999667	0.00000000	10.39001000
59.29999666	0.00000000	13.75492000
59.49999664	0.00000000	16.25246000
59.69999663	0.00000000	16.65846000
59.89999662	0.00000000	15.02214000
60.09999661	0.00000000	12.02018000
60.29999660	0.00000000	8.24311000
60.49999658	0.00000000	4.42913300
60.69999657	0.00000000	1.87623000
60.89999656	0.00000000	0.60900590
61.09999655	0.00000000	1.06422200
61.29999654	0.00000000	3.61097400
61.49999653	0.00000000	7.33882900
61.69999651	0.00000000	11.15280000
61.89999650	0.00000000	13.70571000
62.09999649	0.00000000	15.02214000
62.29999648	0.00000000	14.97293000
62.49999647	0.00000000	13.34276000
62.69999645	0.00000000	10.80217000
62.89999644	0.00000000	8.24311000
63.09999643	0.00000000	5.65329700
63.29999642	0.00000000	3.61097400
63.49999641	0.00000000	2.70054100
63.69999639	0.00000000	3.14960600
63.89999638	0.00000000	4.37992100
64.09999637	0.00000000	6.46530500
64.29999636	0.00000000	8.19389700
64.49999635	0.00000000	9.57185000
64.69999634	0.00000000	11.65723000
64.89999632	0.00000000	13.29355000
65.09999631	0.00000000	13.80413000
65.29999630	0.00000000	13.75492000
65.49999629	0.00000000	12.83834000
65.69999628	0.00000000	10.34080000
65.89999626	0.00000000	7.43725300
66.09999625	0.00000000	5.24114100
66.29999624	0.00000000	3.51254900
66.49999623	0.00000000	2.23917300
66.69999622	0.00000000	1.87623000
66.89999620	0.00000000	2.74360200
67.09999619	0.00000000	5.29035400
67.29999618	0.00000000	8.65526600
67.49999617	0.00000000	12.06939000
67.69999616	0.00000000	15.02214000
67.89999615	0.00000000	16.70768000
68.09999613	0.00000000	16.70768000
68.29999612	0.00000000	14.97293000
68.49999611	0.00000000	11.60802000
68.69999610	0.00000000	7.38804100
68.89999609	0.00000000	3.56176100
69.09999607	0.00000000	0.60900590
69.29999606	0.00000000	-0.66437010
69.49999605	0.00000000	0.14763780
69.69999604	0.00000000	2.28838600
69.89999603	0.00000000	5.70251000
70.09999601	0.00000000	9.92864100
70.29999600	0.00000000	13.75492000
70.49999599	0.00000000	16.70768000
70.69999598	0.00000000	17.93184000
70.89999597	0.00000000	16.70768000
71.09999596	0.00000000	13.75492000
71.29999594	0.00000000	9.92864100
71.49999593	0.00000000	5.70251000
71.69999592	0.00000000	2.33759800
71.89999591	0.00000000	0.60900590
72.09999590	0.00000000	0.60900590
72.29999588	0.00000000	2.28838600
72.49999587	0.00000000	5.24114100
72.69999586	0.00000000	8.65526600
72.89999585	0.00000000	12.06939000
73.09999584	0.00000000	14.97293000
73.29999582	0.00000000	16.24631000
73.49999581	0.00000000	15.43430000
73.69999580	0.00000000	13.34276000
73.89999579	0.00000000	10.29158000
74.09999578	0.00000000	6.51451700
74.29999577	0.00000000	2.79896600
74.49999575	0.00000000	1.06422200
74.69999574	0.00000000	1.46407500
74.89999573	0.00000000	3.15575800
75.09999572	0.00000000	6.56373000
75.29999571	0.00000000	10.34080000
75.49999569	0.00000000	13.75492000
75.69999568	0.00000000	16.25246000
75.89999567	0.00000000	16.65846000
76.09999566	0.00000000	14.97293000
76.29999565	0.00000000	11.55881000
76.49999563	0.00000000	6.97588500
76.69999562	0.00000000	2.74975400
76.89999561	0.00000000	0.24606300
77.09999560	0.00000000	-0.25221450
77.29999559	0.00000000	1.51943900
77.49999558	0.00000000	4.89050100
77.69999556	0.00000000	9.97785300
77.89999555	0.00000000	14.97293000
78.09999554	0.00000000	18.38706000
78.29999553	0.00000000	19.66043000
78.49999552	0.00000000	18.33784000
78.69999550	0.00000000	14.56693000
78.89999549	0.00000000	9.11663300
79.09999548	0.00000000	4.02313000
79.29999547	0.00000000	0.14763780
79.49999546	0.00000000	-2.34990100
79.69999544	0.00000000	-2.30068900
79.89999543	0.00000000	0.65821850
80.09999542	0.00000000	5.70251000
80.29999541	0.00000000	11.65723000
80.49999540	0.00000000	17.11983000
80.69999539	0.00000000	20.93381000
80.89999537	0.00000000	21.75197000
81.09999536	0.00000000	19.70964000
81.29999535	0.00000000	15.43430000
81.49999534	0.00000000	9.92864100
81.69999533	0.00000000	3.97391700
81.89999531	0.00000000	-1.07037400
82.09999530	0.00000000	-4.07849400
82.29999529	0.00000000	-4.48449800
82.49999528	0.00000000	-2.39911400
82.69999527	0.00000000	1.82701800
82.89999525	0.00000000	6.92667200
83.09999524	0.00000000	12.11860000
83.29999523	0.00000000	17.16904000
83.49999522	0.00000000	20.93381000
83.69999521	0.00000000	21.75197000
83.89999520	0.00000000	19.70964000
84.09999518	0.00000000	15.43430000
84.29999517	0.00000000	9.92864100
84.49999516	0.00000000	4.02313000
84.69999515	0.00000000	-0.61515740
84.89999514	0.00000000	-2.80511800
85.09999512	0.00000000	-2.85433100
85.29999511	0.00000000	-1.12573800
85.49999510	0.00000000	2.28838600
85.69999509	0.00000000	6.97588500
85.89999508	0.00000000	12.06939000
86.09999506	0.00000000	16.75689000
86.29999505	0.00000000	20.12180000
86.49999504	0.00000000	21.39518000
86.69999503	0.00000000	20.12180000
86.89999502	0.00000000	16.70768000
87.09999501	0.00000000	11.60802000
87.29999499	0.00000000	5.70251000
87.49999498	0.00000000	0.65821850
87.69999497	0.00000000	-2.34990100
87.89999496	0.00000000	-2.80511800
88.09999495	0.00000000	-1.12573800
88.29999493	0.00000000	2.28838600
88.49999492	0.00000000	6.97588500
88.69999491	0.00000000	12.02018000
88.89999490	0.00000000	16.24631000
89.09999489	0.00000000	18.43627000
89.29999487	0.00000000	18.89764000
89.49999486	0.00000000	17.98105000
89.69999485	0.00000000	14.97293000
89.89999484	0.00000000	10.39001000
90.09999483	0.00000000	5.70251000
90.29999482	0.00000000	1.92544300
90.49999480	0.00000000	-0.20300200
90.69999479	0.00000000	0.19685040
90.89999478	0.00000000	2.23917300
91.09999477	0.00000000	5.24114100
91.29999476	0.00000000	8.65526600
91.49999474	0.00000000	12.06939000
91.69999473	0.00000000	14.92372000
91.89999472	0.00000000	15.88952000
92.09999471	0.00000000	15.08366000
92.29999470	0.00000000	14.20399000
92.49999468	0.00000000	12.06939000
92.69999467	0.00000000	9.57185000
92.89999466	0.00000000	7.83710600
93.09999465	0.00000000	6.10851300
93.29999464	0.00000000	5.33956700
93.49999463	0.00000000	5.65329700
93.69999461	0.00000000	6.51451700
93.89999460	0.00000000	7.38804100
94.09999459	0.00000000	8.65526600
94.29999458	0.00000000	9.92864100
94.49999457	0.00000000	10.80217000
94.69999455	0.00000000	11.60802000
94.89999454	0.00000000	11.60802000
95.09999453	0.00000000	10.85138000
95.29999452	0.00000000	10.39001000
95.49999451	0.00000000	9.92864100
95.69999449	0.00000000	9.11663300
95.89999448	0.00000000	8.65526600
96.09999447	0.00000000	8.19389700
96.29999446	0.00000000	7.38804100
96.49999445	0.00000000	6.97588500
96.69999444	0.00000000	6.92667200
96.89999442	0.00000000	6.97588500
97.09999441	0.00000000	7.43725300
97.29999440	0.00000000	8.65526600
97.49999439	0.00000000	9.87942800
97.69999438	0.00000000	10.39001000
97.89999436	0.00000000	10.80217000
98.09999435	0.00000000	11.20202000
98.29999434	0.00000000	10.80217000
98.49999433	0.00000000	10.39001000
98.69999432	0.00000000	9.87942800
98.89999430	0.00000000	8.65526600
99.09999429	0.00000000	7.38804100
99.29999428	0.00000000	6.56373000
99.49999427	0.00000000	6.11466500
99.69999426	0.00000000	6.56373000
99.89999425	0.00000000	7.38804100
100.09999423	0.00000000	8.65526600
100.29999422	0.00000000	9.87942800
100.49999421	0.00000000	10.39001000
100.69999420	0.00000000	10.80217000
100.89999419	0.00000000	11.20202000
101.09999417	0.00000000	10.75295000
101.29999416	0.00000000	9.97785300
101.49999415	0.00000000	9.06742000
101.69999414	0.00000000	8.14468500
101.89999413	0.00000000	6.51451700
102.09999411	0.00000000	4.93971400
102.29999410	0.00000000	5.29035400
102.49999409	0.00000000	6.46530500
102.69999408	0.00000000	7.38804100
102.89999407	0.00000000	8.65526600
103.09999406	0.00000000	9.87942800
103.29999404	0.00000000	10.39001000
103.49999403	0.00000000	10.80217000
103.69999402	0.00000000	11.15280000
103.89999401	0.00000000	10.34080000
104.09999400	0.00000000	9.11663300
104.29999398	0.00000000	8.19389700
104.49999397	0.00000000	6.97588500
104.69999396	0.00000000	6.16387700
104.89999395	0.00000000	6.56373000
105.09999394	0.00000000	7.33882900
105.29999392	0.00000000	8.24311000
105.49999391	0.00000000	9.06742000
105.69999390	0.00000000	9.92864100
105.89999389	0.00000000	10.34080000
106.09999388	0.00000000	10.43922000
106.29999387	0.00000000	10.75295000
106.49999385	0.00000000	10.74065000
106.69999384	0.00000000	9.47342500
106.89999383	0.00000000	8.29232200
107.09999382	0.00000000	7.38804100
107.29999381	0.00000000	6.97588500
107.49999379	0.00000000	6.97588500
107.69999378	0.00000000	7.38804100
107.89999377	0.00000000	8.24311000
108.09999376	0.00000000	9.16584600
108.29999375	0.00000000	10.85138000
108.49999374	0.00000000	12.88755000
108.69999372	0.00000000	13.70571000
108.89999371	0.00000000	13.39198000
109.09999370	0.00000000	12.48154000
109.29999369	0.00000000	11.25123000
109.49999368	0.00000000	9.42421200
109.69999366	0.00000000	7.37573800
109.89999365	0.00000000	4.89050100
110.09999364	0.00000000	4.12155500
110.29999363	0.00000000	5.24114100
110.49999362	0.00000000	6.92667200
110.69999360	0.00000000	8.65526600
110.89999359	0.00000000	10.34080000
