Time	Channel A	Channel B
(us)	(V)	(mV)

-4.59999956	0.00000000	1.72859200
-4.39999957	0.00000000	1.72859200
-4.19999958	0.00000000	1.72859200
-3.99999959	0.00000000	1.72859200
-3.79999960	0.00000000	1.72859200
-3.59999962	0.00000000	1.72859200
-3.39999963	0.00000000	1.72859200
-3.19999964	0.00000000	1.72859200
-2.99999965	0.00000000	1.72859200
-2.79999966	0.00000000	1.72859200
-2.59999968	0.00000000	1.72859200
-2.39999969	0.00000000	1.72859200
-2.19999970	0.00000000	1.72859200
-1.99999971	0.00000000	1.72859200
-1.79999972	0.00000000	1.67938000
-1.59999973	0.00000000	1.31643700
-1.39999975	0.00000000	0.91658460
-1.19999976	0.00000000	1.31643700
-0.99999977	0.00000000	1.67938000
-0.79999978	0.00000000	1.72859200
-0.59999979	0.00000000	1.72859200
-0.39999981	0.35125490	1.72859200
-0.19999982	0.70250980	1.67938000
0.00000017	0.87844490	1.31643700
0.20000016	0.87844490	0.86737200
0.40000015	0.70250980	0.91043300
0.60000013	0.17531990	0.86737200
0.80000012	-0.70250980	1.31643700
1.00000011	-1.75689000	1.67938000
1.20000010	-2.63533500	1.72859200
1.40000009	-2.81127000	1.72859200
1.60000008	-2.28408000	1.72859200
1.80000006	-0.87844490	1.72859200
2.00000005	1.05376500	1.72859200
2.20000004	3.16252500	1.67938000
2.40000003	4.74409400	1.26722400
2.60000002	5.27128500	0.46136810
2.80000000	4.39283900	0.04921259
2.99999999	2.28408000	0.00000000
3.19999998	-1.05376500	0.04921259
3.39999997	-4.39283900	0.46136810
3.59999996	-7.02817400	1.26722400
3.79999994	-8.08255400	1.67938000
3.99999993	-7.02817400	1.72859200
4.19999992	-4.21690500	1.72859200
4.39999991	0.17531990	1.72859200
4.59999990	4.39283900	1.72859200
4.79999989	7.90661900	1.67938000
4.99999987	9.31225400	1.26722400
5.19999986	8.60974400	0.46136810
5.39999985	5.44660400	0.09842519
5.59999984	1.05376500	0.46136810
5.79999983	-3.68971500	1.26722400
5.99999981	-7.55536400	1.72859200
6.19999980	-9.31225400	2.14074800
6.39999979	-8.96099900	2.54060000
6.59999978	-6.14972900	2.14074800
6.79999977	-2.28408000	1.77780500
6.99999975	2.10814500	1.72859200
7.19999974	5.62254000	1.72859200
7.39999973	7.55536400	1.67938000
7.59999972	7.37942900	1.26722400
7.79999971	5.44660400	0.46136810
7.99999970	2.28408000	0.09842519
8.19999968	-0.87844490	0.46136810
8.39999967	-3.51377900	1.26722400
8.59999966	-4.91941500	1.67938000
8.79999965	-5.09534900	1.72859200
8.99999964	-3.86565000	1.72859200
9.19999962	-1.93282500	1.72859200
9.39999961	0.00000000	1.72859200
9.59999960	1.58095500	1.72859200
9.79999959	2.28408000	1.67938000
9.99999958	2.45940000	1.31643700
10.19999956	1.75689000	0.86737200
10.39999955	0.87844490	0.91043300
10.59999954	0.00000000	0.86737200
10.79999953	-0.52657480	1.31643700
10.99999952	-0.87844490	1.67938000
11.19999951	-0.87844490	1.72859200
11.39999949	-0.87844490	1.72859200
11.59999948	-0.52657480	1.72859200
11.79999947	-0.17531990	1.67938000
11.99999946	0.00000000	1.31643700
12.19999945	0.00000000	0.91658460
12.39999943	-0.17531990	1.26722400
12.59999942	-0.17531990	1.21801200
12.79999941	-0.17531990	0.51058070
12.99999940	-0.17531990	0.51058070
13.19999939	-0.17531990	1.26722400
13.39999937	-0.17531990	1.67938000
13.59999936	0.00000000	1.72859200
13.79999935	0.00000000	1.72859200
13.99999934	0.00000000	1.67938000
14.19999933	0.00000000	1.31643700
14.39999932	0.00000000	0.91658460
14.59999930	0.00000000	1.31643700
14.79999929	0.00000000	1.67938000
14.99999928	0.00000000	1.72859200
15.19999927	0.00000000	1.72859200
15.39999926	0.00000000	1.72859200
15.59999924	0.00000000	1.72859200
15.79999923	-0.17531990	1.72859200
15.99999922	-0.17531990	1.72859200
16.19999921	-0.17531990	1.72859200
16.39999920	-0.17531990	1.72859200
16.59999919	0.00000000	1.72859200
16.79999917	0.00000000	1.72859200
16.99999916	0.00000000	1.72859200
17.19999915	0.00000000	1.72859200
17.39999914	0.00000000	1.72859200
17.59999913	0.00000000	1.72859200
17.79999911	0.00000000	1.72859200
17.99999910	0.00000000	1.72859200
18.19999909	0.00000000	1.72859200
18.39999908	0.00000000	1.72859200
18.59999907	0.00000000	1.72859200
18.79999905	0.00000000	1.72859200
18.99999904	0.00000000	1.72859200
19.19999903	-0.17531990	1.67938000
19.39999902	-0.17531990	1.26722400
19.59999901	0.00000000	0.51058070
19.79999900	0.00000000	0.46136810
19.99999898	0.00000000	0.86122040
20.19999897	0.00000000	0.86737200
20.39999896	0.00000000	1.31643700
20.59999895	0.00000000	1.67938000
20.79999894	0.00000000	1.72859200
20.99999892	0.00000000	1.72859200
21.19999891	0.00000000	1.67938000
21.39999890	0.00000000	1.31643700
21.59999889	0.00000000	0.91658460
21.79999888	0.00000000	1.31643700
21.99999886	0.00000000	1.67938000
22.19999885	0.00000000	1.67938000
22.39999884	0.00000000	1.26722400
22.59999883	0.00000000	0.46136810
22.79999882	0.00000000	0.04921259
22.99999881	0.00000000	0.00000000
23.19999879	0.00000000	0.00000000
23.39999878	0.00000000	0.00000000
23.59999877	0.00000000	0.00000000
23.79999876	0.00000000	0.00000000
23.99999875	0.00000000	0.09842519
24.19999873	0.00000000	0.91658460
24.39999872	0.00000000	2.54675200
24.59999871	0.00000000	3.41412400
24.79999870	0.00000000	3.92470400
24.99999869	0.00000000	4.68134800
25.19999867	0.00000000	4.63213500
25.39999866	0.00000000	3.36491100
25.59999865	0.00000000	1.22416300
25.79999864	0.00000000	-1.72859200
25.99999863	0.00000000	-4.68134800
26.19999862	0.00000000	-6.82824800
26.39999860	0.00000000	-8.04626000
26.59999859	0.00000000	-7.54183000
26.79999858	0.00000000	-4.48449800
26.99999857	0.00000000	0.96579720
27.19999856	0.00000000	7.73868000
27.39999854	0.00000000	13.65650000
27.59999853	0.00000000	17.88263000
27.79999852	0.00000000	19.00837000
27.99999851	0.00000000	15.54503000
28.19999850	0.00000000	7.49261800
28.39999848	0.00000000	-3.46333600
28.59999847	0.00000000	-14.46850000
28.79999846	0.00000000	-22.92692000
28.99999845	0.00000000	-27.10384000
29.19999844	0.00000000	-25.27682000
29.39999843	0.00000000	-16.71383000
29.59999841	0.00000000	-2.34990100
29.79999840	0.00000000	14.51772000
29.99999839	0.00000000	29.34916000
30.19999838	0.00000000	39.03174000
30.39999837	0.00000000	41.01870000
30.59999835	0.00000000	33.32308000
30.79999834	0.00000000	17.22441000
30.99999833	0.00000000	-3.92470400
31.19999832	0.00000000	-25.47367000
31.39999831	0.00000000	-41.93528000
31.59999829	0.00000000	-49.53248000
31.79999828	0.00000000	-46.01993000
31.99999827	0.00000000	-31.18848000
32.19999826	0.00000000	-7.95398600
32.39999825	0.00000000	17.88263000
32.59999824	0.00000000	40.71727000
32.79999822	0.00000000	55.48720000
32.99999821	0.00000000	57.99089000
33.19999820	0.00000000	47.84694000
33.39999819	0.00000000	27.00541000
33.59999818	0.00000000	-0.46136810
33.79999816	0.00000000	-28.32800000
33.99999815	0.00000000	-49.48326000
34.19999814	0.00000000	-59.21505000
34.39999813	0.00000000	-55.43799000
34.59999812	0.00000000	-38.93332000
34.79999810	0.00000000	-13.95792000
34.99999809	0.00000000	14.41929000
35.19999808	0.00000000	39.74532000
35.39999807	0.00000000	55.85014000
35.59999806	0.00000000	59.26427000
35.79999805	0.00000000	49.53248000
35.99999803	0.00000000	28.83858000
36.19999802	0.00000000	2.23917300
36.39999801	0.00000000	-23.54823000
36.59999800	0.00000000	-42.64886000
36.79999799	0.00000000	-51.11343000
36.99999797	0.00000000	-47.33637000
37.19999796	0.00000000	-32.20350000
37.39999795	0.00000000	-10.29158000
37.59999794	0.00000000	12.59227000
37.79999793	0.00000000	31.64370000
37.99999791	0.00000000	42.60580000
38.19999790	0.00000000	42.70423000
38.39999789	0.00000000	32.66486000
38.59999788	0.00000000	16.25246000
38.79999787	0.00000000	-2.34990100
38.99999786	0.00000000	-18.39936000
39.19999784	0.00000000	-28.18036000
39.39999783	0.00000000	-29.95817000
39.59999782	0.00000000	-24.10187000
39.79999781	0.00000000	-12.73991000
39.99999780	0.00000000	1.11958700
40.19999778	0.00000000	13.34892000
40.39999777	0.00000000	20.58932000
40.59999776	0.00000000	21.96112000
40.79999775	0.00000000	17.78420000
40.99999774	0.00000000	9.83021600
41.19999772	0.00000000	0.60900590
41.39999771	0.00000000	-6.98203700
41.59999770	0.00000000	-10.85753000
41.79999769	0.00000000	-10.95595000
41.99999768	0.00000000	-8.04626000
42.19999767	0.00000000	-3.46333600
42.39999765	0.00000000	1.16879900
42.59999764	0.00000000	4.58292300
42.79999763	0.00000000	6.26845500
42.99999762	0.00000000	5.91166300
43.19999761	0.00000000	3.87549200
43.39999759	0.00000000	1.82701800
43.59999758	0.00000000	0.51058070
43.79999757	0.00000000	0.09842519
43.99999756	0.00000000	0.46136810
44.19999755	0.00000000	1.26722400
44.39999753	0.00000000	1.67938000
44.59999752	0.00000000	1.63016700
44.79999751	0.00000000	0.76279520
44.99999750	0.00000000	-1.32258800
45.19999749	0.00000000	-3.31569900
45.39999748	0.00000000	-4.17691900
45.59999746	0.00000000	-3.26648600
45.79999745	0.00000000	-0.76279520
45.99999744	0.00000000	3.00196800
46.19999743	0.00000000	6.36687900
46.39999742	0.00000000	8.45841400
46.59999740	0.00000000	8.91363100
46.79999739	0.00000000	7.19119100
46.99999738	0.00000000	4.22613100
47.19999737	0.00000000	-0.04921259
47.39999736	0.00000000	-4.63213500
47.59999734	0.00000000	-7.94783400
47.79999733	0.00000000	-8.86441900
47.99999732	0.00000000	-7.19119100
48.19999731	0.00000000	-4.22613100
48.39999730	0.00000000	0.00000000
48.59999729	0.00000000	4.17691900
48.79999727	0.00000000	6.77903500
48.99999726	0.00000000	8.09547100
49.19999725	0.00000000	8.04626000
49.39999724	0.00000000	6.41609200
49.59999723	0.00000000	3.87549200
49.79999721	0.00000000	1.32258800
49.99999720	0.00000000	-1.27337600
50.19999719	0.00000000	-3.36491100
50.39999718	0.00000000	-4.63213500
50.59999717	-0.17531990	-4.63213500
50.79999715	0.00000000	-3.41412400
50.99999714	0.00000000	-1.72859200
51.19999713	0.00000000	0.00000000
51.39999712	0.00000000	1.72859200
51.59999711	0.00000000	3.41412400
51.79999710	0.00000000	4.68134800
51.99999708	0.00000000	5.14271600
52.19999707	0.00000000	5.14271600
52.39999706	0.00000000	4.68134800
52.59999705	0.00000000	3.41412400
52.79999704	0.00000000	1.67938000
52.99999702	0.00000000	-0.46136810
53.19999701	0.00000000	-2.95275600
53.39999700	0.00000000	-4.58292300
53.59999699	0.00000000	-4.63213500
53.79999698	0.00000000	-3.36491100
53.99999696	0.00000000	-1.27337600
54.19999695	0.00000000	1.27337600
54.39999694	-0.17531990	3.41412400
54.59999693	0.00000000	5.14271600
54.79999692	0.00000000	6.31766700
54.99999691	0.00000000	5.91166300
55.19999689	0.00000000	3.82627900
55.39999688	0.00000000	1.32258800
55.59999687	0.00000000	-1.27337600
55.79999686	0.00000000	-3.31569900
55.99999685	0.00000000	-4.17691900
56.19999683	0.00000000	-3.36491100
56.39999682	0.00000000	-1.67938000
56.59999681	0.00000000	0.46136810
56.79999680	0.00000000	3.00196800
56.99999679	0.00000000	5.04429100
57.19999677	0.00000000	5.90551100
57.39999676	0.00000000	5.04429100
57.59999675	0.00000000	2.95275600
57.79999674	0.00000000	0.00000000
57.99999673	0.00000000	-2.90354300
58.19999672	0.00000000	-4.63213500
58.39999670	0.00000000	-5.04429100
58.59999669	0.00000000	-4.17691900
58.79999668	0.00000000	-1.63016700
58.99999667	0.00000000	1.67938000
59.19999666	0.00000000	4.68134800
59.39999664	0.00000000	6.77903500
59.59999663	0.00000000	7.59104300
59.79999662	0.00000000	6.31766700
59.99999661	0.00000000	3.41412400
60.19999660	0.00000000	0.00000000
60.39999658	0.00000000	-3.36491100
60.59999657	0.00000000	-5.91166300
60.79999656	0.00000000	-6.72982200
60.99999655	0.00000000	-5.91166300
61.19999654	0.00000000	-3.36491100
61.39999653	0.00000000	0.00000000
61.59999651	0.00000000	3.41412400
61.79999650	0.00000000	6.31766700
61.99999649	0.00000000	7.64025500
62.19999648	0.00000000	7.19119100
62.39999647	-0.17531990	5.54872000
62.59999645	0.00000000	2.60211600
62.79999644	0.00000000	0.09842519
62.99999643	0.00000000	-1.72859200
63.19999642	0.00000000	-3.36491100
63.39999641	0.00000000	-4.22613100
63.59999639	0.00000000	-3.82627900
63.79999638	0.00000000	-3.00196800
63.99999637	0.00000000	-1.67938000
64.19999636	0.00000000	0.00000000
64.39999635	0.00000000	1.72859200
64.59999634	0.00000000	3.41412400
64.79999632	0.00000000	4.73056000
64.99999631	0.00000000	5.60408400
65.19999630	0.00000000	6.41609200
65.39999629	0.00000000	6.31766700
65.59999628	0.00000000	4.63213500
65.79999626	0.00000000	1.72859200
65.99999625	0.00000000	-1.27337600
66.19999624	0.00000000	-3.87549200
66.39999623	0.00000000	-6.41609200
66.59999622	0.00000000	-7.99704600
66.79999620	0.00000000	-7.59104300
66.99999619	0.00000000	-5.04429100
67.19999618	0.00000000	-1.21801200
67.39999617	0.00000000	3.46333600
67.59999616	0.00000000	8.09547100
67.79999615	0.00000000	11.41117000
67.99999613	0.00000000	12.27854000
68.19999612	0.00000000	10.14395000
68.39999611	0.00000000	5.96087600
68.59999610	0.00000000	0.41215550
68.79999609	0.00000000	-5.04429100
68.99999607	0.00000000	-9.31963500
69.19999606	0.00000000	-11.36196000
69.39999605	0.00000000	-10.59301000
69.59999604	0.00000000	-7.19119100
69.79999603	0.00000000	-2.54675200
69.99999601	0.00000000	3.00196800
70.19999600	0.00000000	8.04626000
70.39999599	0.00000000	11.46038000
70.59999598	0.00000000	12.73376000
70.79999597	0.00000000	11.41117000
70.99999596	0.00000000	7.64025500
71.19999594	0.00000000	2.14074800
71.39999593	0.00000000	-3.31569900
71.59999592	0.00000000	-7.59104300
71.79999591	0.00000000	-9.73179100
71.99999590	0.00000000	-9.73179100
72.19999588	0.00000000	-7.59104300
72.39999587	0.00000000	-3.36491100
72.59999586	0.00000000	1.67938000
72.79999585	0.00000000	6.36687900
72.99999584	0.00000000	9.73179100
73.19999582	0.00000000	11.00517000
73.39999581	0.00000000	9.73179100
73.59999580	0.00000000	6.41609200
73.79999579	0.00000000	2.14074800
73.99999578	0.00000000	-2.09153500
74.19999577	0.00000000	-5.90551100
74.39999575	0.00000000	-7.99704600
74.59999574	0.00000000	-8.04626000
74.79999573	0.00000000	-6.31766700
74.99999572	0.00000000	-2.90354300
75.19999571	0.00000000	1.67938000
75.39999569	0.00000000	5.90551100
75.59999568	0.00000000	8.45841400
75.79999567	0.00000000	9.31963500
75.99999566	0.00000000	7.99704600
76.19999565	0.00000000	4.63213500
76.39999563	0.00000000	0.00000000
76.59999562	0.00000000	-4.63213500
76.79999561	0.00000000	-7.99704600
76.99999560	0.00000000	-9.27042300
77.19999559	0.00000000	-7.99704600
77.39999558	0.00000000	-4.58292300
77.59999556	0.00000000	0.51058070
77.79999555	0.00000000	6.36687900
77.99999554	0.00000000	11.00517000
78.19999553	0.00000000	13.14591000
78.39999552	0.00000000	12.69070000
78.59999550	0.00000000	9.27657400
78.79999549	0.00000000	3.41412400
78.99999548	0.00000000	-2.90354300
79.19999547	0.00000000	-8.04626000
79.39999546	0.00000000	-11.46038000
79.59999544	0.00000000	-12.63533000
79.79999543	0.00000000	-10.49459000
79.99999542	0.00000000	-5.04429100
80.19999541	0.00000000	1.67938000
80.39999540	0.00000000	8.09547100
80.59999539	0.00000000	13.14591000
80.79999537	0.00000000	15.64345000
80.99999536	0.00000000	14.37008000
81.19999535	0.00000000	9.78100300
81.39999534	0.00000000	3.41412400
81.59999533	0.00000000	-3.36491100
81.79999531	0.00000000	-9.32578700
81.99999530	0.00000000	-13.14591000
82.19999529	0.00000000	-14.41929000
82.39999528	0.00000000	-12.68455000
82.59999527	0.00000000	-8.04626000
82.79999525	0.00000000	-1.67938000
82.99999524	0.00000000	5.09350300
83.19999523	0.00000000	11.05438000
83.39999522	0.00000000	14.82529000
83.59999521	0.00000000	15.69267000
83.79999520	0.00000000	13.19513000
83.99999518	0.00000000	8.55684000
84.19999517	0.00000000	2.95275600
84.39999516	0.00000000	-3.41412400
84.59999515	0.00000000	-9.32578700
84.79999514	0.00000000	-13.09670000
84.99999512	-0.17531990	-14.00714000
85.19999511	0.00000000	-11.87254000
85.39999510	0.00000000	-7.64025500
85.59999509	0.00000000	-1.63016700
85.79999508	0.00000000	5.09350300
85.99999506	0.00000000	11.05438000
86.19999505	0.00000000	14.82529000
86.39999504	0.00000000	15.74188000
86.59999503	0.00000000	13.60728000
86.79999502	0.00000000	9.37500000
86.99999501	0.00000000	3.36491100
87.19999499	0.00000000	-3.36491100
87.39999498	0.00000000	-9.32578700
87.59999497	0.00000000	-13.14591000
87.79999496	0.00000000	-14.41929000
87.99999495	0.00000000	-12.68455000
88.19999493	0.00000000	-7.99704600
88.39999492	0.00000000	-1.26722400
88.59999491	0.00000000	5.91166300
88.79999490	0.00000000	11.41117000
88.99999489	0.00000000	14.41929000
89.19999487	0.00000000	14.41929000
89.39999486	0.00000000	11.50960000
89.59999485	0.00000000	6.82824800
89.79999484	0.00000000	1.27337600
89.99999483	0.00000000	-4.63828700
90.19999482	0.00000000	-9.27042300
90.39999480	0.00000000	-11.41117000
90.59999479	0.00000000	-11.00517000
90.79999478	0.00000000	-8.04626000
90.99999477	0.00000000	-3.46333600
91.19999476	0.00000000	1.21801200
91.39999474	0.00000000	5.09350300
91.59999473	0.00000000	8.09547100
91.79999472	-0.17531990	9.73179100
91.99999471	0.00000000	9.32578700
92.19999470	0.00000000	6.82824800
92.39999468	0.00000000	3.46333600
92.59999467	0.00000000	0.04921259
92.79999466	0.00000000	-2.90354300
92.99999465	0.00000000	-4.63213500
93.19999464	0.00000000	-5.04429100
93.39999463	0.00000000	-4.27534400
93.59999461	0.00000000	-2.54675200
93.79999460	0.00000000	-0.86122040
93.99999459	0.00000000	1.27337600
94.19999458	0.00000000	2.95275600
94.39999457	0.00000000	3.82627900
94.59999455	0.00000000	4.27534400
94.79999454	0.00000000	3.82627900
94.99999453	0.00000000	3.00196800
95.19999452	0.00000000	1.72859200
95.39999451	0.00000000	0.51058070
95.59999449	0.00000000	0.04921259
95.79999448	0.00000000	-0.04921259
95.99999447	0.00000000	-0.46136810
96.19999446	0.00000000	-1.26722400
96.39999445	0.00000000	-1.63016700
96.59999444	0.00000000	-1.26722400
96.79999442	0.00000000	-0.41215550
96.99999441	0.00000000	0.41215550
97.19999440	0.00000000	1.26722400
97.39999439	0.00000000	1.72859200
97.59999438	0.00000000	2.14074800
97.79999436	0.00000000	2.54060000
97.99999435	0.00000000	2.14074800
98.19999434	0.00000000	1.77780500
98.39999433	0.00000000	1.67938000
98.59999432	0.00000000	1.26722400
98.79999430	0.00000000	0.41215550
98.99999429	0.00000000	-0.41215550
99.19999428	0.00000000	-1.26722400
99.39999427	0.00000000	-1.63016700
99.59999426	0.00000000	-1.26722400
99.79999425	0.00000000	-0.41215550
99.99999423	0.00000000	0.41215550
100.19999422	0.00000000	1.31643700
100.39999421	0.00000000	2.14074800
100.59999420	0.00000000	3.00196800
100.79999419	0.00000000	3.36491100
100.99999417	0.00000000	3.00196800
101.19999416	0.00000000	2.14074800
101.39999415	0.00000000	1.26722400
101.59999414	0.00000000	0.00000000
101.79999413	0.00000000	-1.21801200
101.99999411	0.00000000	-1.67938000
102.19999410	0.00000000	-1.67938000
102.39999409	0.00000000	-1.26722400
102.59999408	0.00000000	-0.41215550
102.79999407	0.00000000	0.41215550
102.99999406	0.00000000	1.31643700
103.19999404	0.00000000	2.14074800
103.39999403	0.00000000	2.95275600
103.59999402	0.00000000	2.90354300
103.79999401	0.00000000	1.72859200
103.99999400	0.00000000	0.51058070
104.19999398	0.00000000	0.00000000
104.39999397	0.00000000	-0.46136810
104.59999396	0.00000000	-1.26722400
104.79999395	0.00000000	-1.63016700
104.99999394	0.00000000	-1.26722400
105.19999392	0.00000000	-0.41215550
105.39999391	0.00000000	0.41215550
105.59999390	0.00000000	1.31643700
105.79999389	0.00000000	2.14074800
105.99999388	0.00000000	2.95275600
106.19999387	0.00000000	2.95275600
106.39999385	0.00000000	2.14074800
106.59999384	0.00000000	1.26722400
106.79999383	0.00000000	0.00000000
106.99999382	0.00000000	-1.21801200
107.19999381	0.00000000	-1.67938000
107.39999379	0.00000000	-1.67938000
107.59999378	0.00000000	-1.26722400
107.79999377	0.00000000	-0.41215550
107.99999376	0.00000000	0.46136810
108.19999375	0.00000000	1.72859200
108.39999374	0.00000000	2.95275600
108.59999372	0.00000000	3.41412400
108.79999371	0.00000000	3.36491100
108.99999370	0.00000000	2.54675200
109.19999369	0.00000000	0.86737200
109.39999368	0.00000000	-0.41215550
109.59999366	0.00000000	-1.72859200
109.79999365	0.00000000	-2.95275600
109.99999364	0.00000000	-3.36491100
110.19999363	0.00000000	-2.95275600
110.39999362	0.00000000	-1.63016700
110.59999360	0.00000000	0.46136810
