Time	Channel A	Channel B
(us)	(V)	(mV)

-4.59999956	0.00000000	-3.46333600
-4.39999957	0.00000000	-3.46333600
-4.19999958	0.00000000	-3.46333600
-3.99999959	0.00000000	-3.46333600
-3.79999960	0.00000000	-3.46333600
-3.59999962	0.00000000	-3.46333600
-3.39999963	0.00000000	-3.46333600
-3.19999964	0.00000000	-3.46333600
-2.99999965	0.00000000	-3.46333600
-2.79999966	0.00000000	-3.46333600
-2.59999968	0.00000000	-3.46333600
-2.39999969	0.00000000	-3.46333600
-2.19999970	0.00000000	-3.46333600
-1.99999971	0.00000000	-3.46333600
-1.79999972	0.00000000	-3.46333600
-1.59999973	0.00000000	-3.46333600
-1.39999975	0.00000000	-3.46333600
-1.19999976	0.00000000	-3.46333600
-0.99999977	0.00000000	-3.46333600
-0.79999978	0.00000000	-3.46333600
-0.59999979	0.00000000	-3.46333600
-0.39999981	0.17531990	-3.46333600
-0.19999982	0.52657480	-3.46333600
0.00000017	0.87844490	-3.46333600
0.20000016	1.05376500	-3.46333600
0.40000015	1.05376500	-3.46333600
0.60000013	0.70250980	-3.46333600
0.80000012	0.00000000	-3.46333600
1.00000011	-1.05376500	-3.41412400
1.20000010	-1.93282500	-3.05118100
1.40000009	-2.63533500	-2.60211600
1.60000008	-2.81127000	-2.63902500
1.80000006	-1.93282500	-2.60211600
2.00000005	-0.35125490	-3.05118100
2.20000004	1.58095500	-3.41412400
2.40000003	3.68971500	-3.51254900
2.60000002	5.09534900	-3.92470400
2.80000000	5.27128500	-4.68134800
2.99999999	4.04096900	-4.68134800
3.19999998	1.58095500	-3.92470400
3.39999997	-1.93282500	-3.51254900
3.59999996	-5.27128500	-3.46333600
3.79999994	-7.37942900	-3.46333600
3.99999993	-7.90661900	-3.41412400
4.19999992	-6.50098400	-3.05118100
4.39999991	-3.16252500	-2.65132900
4.59999990	1.22970000	-3.05118100
4.79999989	5.62254000	-3.41412400
4.99999987	8.60974400	-3.51254900
5.19999986	9.48818900	-3.92470400
5.39999985	7.90661900	-4.68134800
5.59999984	4.39283900	-4.68134800
5.79999983	-0.17531990	-3.92470400
5.99999981	-4.74409400	-3.51254900
6.19999980	-8.25849000	-3.46333600
6.39999979	-9.48818900	-3.41412400
6.59999978	-8.25849000	-3.05118100
6.79999977	-5.27128500	-2.65132900
6.99999975	-1.05376500	-3.05118100
7.19999974	3.16252500	-3.41412400
7.39999973	6.32566500	-3.46333600
7.59999972	7.73129900	-3.46333600
7.79999971	7.02817400	-3.51254900
7.99999970	4.74409400	-3.87549200
8.19999968	1.58095500	-4.27534400
8.39999967	-1.58095500	-3.87549200
8.59999966	-4.04096900	-3.51254900
8.79999965	-5.09534900	-3.46333600
8.99999964	-4.74409400	-3.46333600
9.19999962	-3.33846000	-3.46333600
9.39999961	-1.40563500	-3.46333600
9.59999960	0.52657480	-3.46333600
9.79999959	1.93282500	-3.46333600
9.99999958	2.45940000	-3.46333600
10.19999956	2.28408000	-3.46333600
10.39999955	1.58095500	-3.46333600
10.59999954	0.70250980	-3.46333600
10.79999953	-0.17531990	-3.46333600
10.99999952	-0.70250980	-3.46333600
11.19999951	-0.87844490	-3.46333600
11.39999949	-0.87844490	-3.46333600
11.59999948	-0.70250980	-3.46333600
11.79999947	-0.35125490	-3.46333600
11.99999946	0.00000000	-3.46333600
12.19999945	0.00000000	-3.46333600
12.39999943	0.00000000	-3.46333600
12.59999942	-0.17531990	-3.46333600
12.79999941	0.00000000	-3.46333600
12.99999940	-0.17531990	-3.46333600
13.19999939	-0.17531990	-3.46333600
13.39999937	-0.17531990	-3.46333600
13.59999936	0.00000000	-3.46333600
13.79999935	0.00000000	-3.46333600
13.99999934	0.00000000	-3.46333600
14.19999933	0.00000000	-3.46333600
14.39999932	0.00000000	-3.46333600
14.59999930	0.00000000	-3.46333600
14.79999929	0.00000000	-3.46333600
14.99999928	0.00000000	-3.46333600
15.19999927	0.00000000	-3.46333600
15.39999926	0.00000000	-3.46333600
15.59999924	0.00000000	-3.46333600
15.79999923	0.00000000	-3.46333600
15.99999922	0.00000000	-3.46333600
16.19999921	0.00000000	-3.46333600
16.39999920	0.00000000	-3.46333600
16.59999919	0.00000000	-3.46333600
16.79999917	0.00000000	-3.46333600
16.99999916	0.00000000	-3.46333600
17.19999915	0.00000000	-3.46333600
17.39999914	0.00000000	-3.46333600
17.59999913	0.00000000	-3.46333600
17.79999911	0.00000000	-3.46333600
17.99999910	0.00000000	-3.46333600
18.19999909	0.00000000	-3.46333600
18.39999908	0.00000000	-3.46333600
18.59999907	0.00000000	-3.46333600
18.79999905	0.00000000	-3.46333600
18.99999904	0.00000000	-3.46333600
19.19999903	0.00000000	-3.46333600
19.39999902	0.00000000	-3.46333600
19.59999901	0.00000000	-3.46333600
19.79999900	0.00000000	-3.46333600
19.99999898	0.00000000	-3.46333600
20.19999897	0.00000000	-3.46333600
20.39999896	0.00000000	-3.46333600
20.59999895	0.00000000	-3.46333600
20.79999894	0.00000000	-3.46333600
20.99999892	0.00000000	-3.46333600
21.19999891	0.00000000	-3.46333600
21.39999890	0.00000000	-3.46333600
21.59999889	0.00000000	-3.46333600
21.79999888	0.00000000	-3.46333600
21.99999886	0.00000000	-3.46333600
22.19999885	0.00000000	-3.46333600
22.39999884	0.00000000	-3.46333600
22.59999883	0.00000000	-3.46333600
22.79999882	0.00000000	-3.46333600
22.99999881	0.00000000	-3.46333600
23.19999879	0.00000000	-3.46333600
23.39999878	0.00000000	-3.51254900
23.59999877	0.00000000	-3.92470400
23.79999876	0.00000000	-4.73056000
23.99999875	0.00000000	-5.09350300
24.19999873	0.00000000	-4.68134800
24.39999872	0.00000000	-3.41412400
24.59999871	0.00000000	-1.77780500
24.79999870	0.00000000	-0.51058070
24.99999869	0.00000000	-0.04921259
25.19999867	0.00000000	0.00000000
25.39999866	0.00000000	-0.09842519
25.59999865	0.00000000	-0.96579720
25.79999864	0.00000000	-3.10039400
25.99999863	0.00000000	-5.65329700
26.19999862	0.00000000	-8.65526600
26.39999860	0.00000000	-11.50960000
26.59999859	0.00000000	-12.73376000
26.79999858	0.00000000	-11.46038000
26.99999857	0.00000000	-8.04626000
27.19999856	0.00000000	-2.90354300
27.39999854	0.00000000	3.41412400
27.59999853	0.00000000	9.32578700
27.79999852	0.00000000	13.09670000
27.99999851	0.00000000	13.85950000
28.19999850	0.00000000	10.39616000
28.39999848	0.00000000	2.75590500
28.59999847	0.00000000	-7.43725300
28.79999846	0.00000000	-18.43627000
28.99999845	0.00000000	-27.66363000
29.19999844	0.00000000	-32.20350000
29.39999843	0.00000000	-30.05659000
29.59999841	0.00000000	-21.09990000
29.79999840	0.00000000	-7.12967500
29.99999839	0.00000000	9.42421200
30.19999838	0.00000000	24.56324000
30.39999837	0.00000000	34.70103000
30.59999835	0.00000000	36.69414000
30.79999834	0.00000000	29.45374000
30.99999833	0.00000000	13.76107000
31.19999832	0.00000000	-6.97588500
31.39999831	0.00000000	-28.12500000
31.59999829	0.00000000	-45.04183000
31.79999828	0.00000000	-53.40182000
31.99999827	0.00000000	-50.75049000
32.19999826	0.00000000	-36.33120000
32.39999825	0.00000000	-13.14591000
32.59999824	0.00000000	12.69070000
32.79999822	0.00000000	35.56840000
32.99999821	0.00000000	50.75049000
33.19999820	0.00000000	54.06619000
33.39999819	0.00000000	44.33440000
33.59999818	0.00000000	23.59129000
33.79999816	0.00000000	-3.51254900
33.99999815	0.00000000	-30.97933000
34.19999814	0.00000000	-52.53445000
34.39999813	0.00000000	-62.67839000
34.59999812	0.00000000	-59.36269000
34.79999810	0.00000000	-43.67002000
34.99999809	0.00000000	-19.15600000
35.19999808	0.00000000	8.81520600
35.39999807	0.00000000	33.78445000
35.59999806	0.00000000	50.70127000
35.79999805	0.00000000	55.29035000
35.99999803	0.00000000	46.06914000
36.19999802	0.00000000	25.83661000
36.39999801	0.00000000	0.00000000
36.59999800	0.00000000	-25.78740000
36.79999799	0.00000000	-45.70620000
36.99999797	0.00000000	-55.03814000
37.19999796	0.00000000	-52.53445000
37.39999795	0.00000000	-38.61958000
37.59999794	0.00000000	-17.11983000
37.79999793	0.00000000	6.12081600
37.99999791	0.00000000	26.03961000
38.19999790	0.00000000	37.86909000
38.39999789	0.00000000	39.18553000
38.59999788	0.00000000	29.96432000
38.79999787	0.00000000	13.19513000
38.99999786	0.00000000	-5.81323800
39.19999784	0.00000000	-22.32406000
39.39999783	0.00000000	-32.91707000
39.59999782	0.00000000	-35.10704000
39.79999781	0.00000000	-29.29995000
39.99999780	0.00000000	-17.93184000
40.19999778	0.00000000	-4.02313000
40.39999777	0.00000000	8.61835600
40.59999776	0.00000000	16.66462000
40.79999775	0.00000000	18.44857000
40.99999774	0.00000000	14.32087000
41.19999772	0.00000000	6.31766700
41.39999771	0.00000000	-3.31569900
41.59999770	0.00000000	-11.71875000
41.79999769	0.00000000	-16.00640000
41.99999768	0.00000000	-16.10482000
42.19999767	0.00000000	-12.78912000
42.39999765	0.00000000	-7.33882900
42.59999764	0.00000000	-1.87623000
42.79999763	0.00000000	2.34990100
42.99999762	0.00000000	4.02928100
43.19999761	0.00000000	2.90354300
43.39999759	0.00000000	0.41215550
43.59999758	0.00000000	-2.09153500
43.79999757	0.00000000	-4.22613100
43.99999756	0.00000000	-5.04429100
44.19999755	0.00000000	-4.73056000
44.39999753	0.00000000	-3.87549200
44.59999752	0.00000000	-3.10039400
44.79999751	0.00000000	-2.70054100
44.99999750	0.00000000	-3.56176100
45.19999749	0.00000000	-5.19192900
45.39999748	0.00000000	-6.82824800
45.59999746	0.00000000	-7.64025500
45.79999745	0.00000000	-6.77903500
45.99999744	0.00000000	-4.68134800
46.19999743	0.00000000	-1.67938000
46.39999742	0.00000000	1.67938000
46.59999740	0.00000000	4.53371000
46.79999739	0.00000000	5.35187000
46.99999738	0.00000000	3.26648600
47.19999737	0.00000000	-0.46136810
47.39999736	0.00000000	-4.73056000
47.59999734	0.00000000	-8.55684000
47.79999733	0.00000000	-11.50960000
47.99999732	0.00000000	-12.73376000
48.19999731	0.00000000	-11.46038000
48.39999730	0.00000000	-8.09547100
48.59999729	0.00000000	-3.51254900
48.79999727	0.00000000	0.71358260
48.99999726	0.00000000	3.31569900
49.19999725	0.00000000	4.63213500
49.39999724	0.00000000	4.58292300
49.59999723	0.00000000	2.90354300
49.79999721	0.00000000	-0.04921259
49.99999720	0.00000000	-3.46333600
50.19999719	0.00000000	-6.82824800
50.39999718	0.00000000	-9.37500000
50.59999717	0.00000000	-10.24237000
50.79999715	0.00000000	-9.83021600
50.99999714	0.00000000	-8.14468500
51.19999713	0.00000000	-5.65329700
51.39999712	0.00000000	-3.51254900
51.59999711	0.00000000	-1.72859200
51.79999710	0.00000000	-0.04921259
51.99999708	0.00000000	1.21801200
52.19999707	0.00000000	1.67938000
52.39999706	0.00000000	1.63016700
52.59999705	0.00000000	0.76279520
52.79999704	0.00000000	-1.32258800
52.99999702	0.00000000	-3.46333600
53.19999701	0.00000000	-5.65329700
53.39999700	0.00000000	-8.09547100
53.59999699	0.00000000	-9.36884800
53.79999698	0.00000000	-8.96899500
53.99999696	0.00000000	-7.73868000
54.19999695	0.00000000	-5.55487200
54.39999694	0.00000000	-3.05118100
54.59999693	0.00000000	-0.46136810
54.79999692	0.00000000	1.63016700
54.99999691	0.00000000	2.85433100
55.19999689	0.00000000	2.39911400
55.39999688	0.00000000	-0.04921259
55.59999687	0.00000000	-3.00196800
55.79999686	0.00000000	-5.60408400
55.99999685	0.00000000	-8.09547100
56.19999683	0.00000000	-9.31963500
56.39999682	0.00000000	-8.55684000
56.59999681	0.00000000	-6.82824800
56.79999680	0.00000000	-4.22613100
56.99999679	0.00000000	-0.51058070
57.19999677	0.00000000	2.39911400
57.39999676	0.00000000	3.26648600
57.59999675	0.00000000	2.44832700
57.79999674	0.00000000	-0.09842519
57.99999673	0.00000000	-3.46333600
58.19999672	0.00000000	-6.87746000
58.39999670	0.00000000	-9.78100300
58.59999669	0.00000000	-11.00517000
58.79999668	0.00000000	-9.78100300
58.99999667	0.00000000	-6.87746000
59.19999666	0.00000000	-3.41412400
59.39999664	0.00000000	0.36294290
59.59999663	0.00000000	3.71555100
59.79999662	0.00000000	4.94586600
59.99999661	0.00000000	4.17691900
60.19999660	0.00000000	1.58095500
60.39999658	0.00000000	-2.18996000
60.59999657	0.00000000	-6.41609200
60.79999656	0.00000000	-9.78100300
60.99999655	0.00000000	-11.46038000
61.19999654	0.00000000	-11.05438000
61.39999653	0.00000000	-8.55684000
61.59999651	0.00000000	-5.19192900
61.79999650	0.00000000	-1.77780500
61.99999649	0.00000000	1.22416300
62.19999648	0.00000000	3.26648600
62.39999647	0.00000000	3.71555100
62.59999645	0.00000000	2.09153500
62.79999644	0.00000000	0.00000000
62.99999643	0.00000000	-2.18996000
63.19999642	0.00000000	-4.73056000
63.39999641	0.00000000	-6.82824800
63.59999639	0.00000000	-8.14468500
63.79999638	0.00000000	-8.55684000
63.99999637	0.00000000	-8.19389700
64.19999636	0.00000000	-7.28961600
64.39999635	0.00000000	-6.01008800
64.59999634	0.00000000	-3.87549200
64.79999632	0.00000000	-1.77780500
64.99999631	0.00000000	0.00000000
65.19999630	0.00000000	1.72859200
65.39999629	0.00000000	3.36491100
65.59999628	0.00000000	4.12770700
65.79999626	0.00000000	2.85433100
65.99999625	0.00000000	-0.09842519
66.19999624	0.00000000	-3.92470400
66.39999623	0.00000000	-8.14468500
66.59999622	0.00000000	-11.50960000
66.79999620	0.00000000	-13.24434000
66.99999619	0.00000000	-13.19513000
67.19999618	0.00000000	-11.00517000
67.39999617	0.00000000	-6.36687900
67.59999616	0.00000000	-0.51058070
67.79999615	0.00000000	4.58292300
67.99999613	0.00000000	7.99704600
68.19999612	0.00000000	9.22121000
68.39999611	0.00000000	7.54183000
68.59999610	0.00000000	3.31569900
68.79999609	0.00000000	-2.18996000
68.99999607	0.00000000	-8.14468500
69.19999606	0.00000000	-13.14591000
69.39999605	0.00000000	-15.69267000
69.59999604	0.00000000	-14.87451000
69.79999603	0.00000000	-11.50960000
69.99999601	0.00000000	-6.41609200
70.19999600	0.00000000	-0.51058070
70.39999599	0.00000000	4.58292300
70.59999598	0.00000000	7.99704600
70.79999597	0.00000000	9.22121000
70.99999596	0.00000000	7.54183000
71.19999594	0.00000000	3.36491100
71.39999593	0.00000000	-1.67938000
71.59999592	0.00000000	-6.41609200
71.79999591	0.00000000	-10.24237000
71.99999590	0.00000000	-12.73991000
72.19999588	0.00000000	-12.73991000
72.39999587	0.00000000	-10.29158000
72.59999586	0.00000000	-6.87746000
72.79999585	0.00000000	-3.00196800
72.99999584	0.00000000	1.16879900
73.19999582	0.00000000	4.12770700
73.39999581	0.00000000	4.99507900
73.59999580	0.00000000	4.22613100
73.79999579	0.00000000	2.04232300
73.99999578	0.00000000	-0.91658460
74.19999577	0.00000000	-4.73056000
74.39999575	0.00000000	-8.04626000
74.59999574	0.00000000	-9.78100300
74.79999573	0.00000000	-9.83021600
74.99999572	0.00000000	-8.50762700
75.19999571	0.00000000	-5.95472400
75.39999569	0.00000000	-2.18996000
75.59999568	0.00000000	1.17495100
75.79999567	0.00000000	3.31569900
75.99999566	0.00000000	4.12770700
76.19999565	0.00000000	2.85433100
76.39999563	0.00000000	-0.04921259
76.59999562	0.00000000	-3.46333600
76.79999561	0.00000000	-6.87746000
76.99999560	0.00000000	-9.83021600
77.19999559	0.00000000	-11.46038000
77.39999558	0.00000000	-11.00517000
77.59999556	0.00000000	-8.04626000
77.79999555	0.00000000	-3.41412400
77.99999554	0.00000000	1.63016700
78.19999553	0.00000000	5.90551100
78.39999552	0.00000000	8.35998900
78.59999550	0.00000000	8.35383800
78.79999549	0.00000000	4.99507900
78.99999548	0.00000000	-0.04921259
79.19999547	0.00000000	-5.65329700
79.39999546	0.00000000	-11.50960000
79.59999544	0.00000000	-15.69267000
79.79999543	0.00000000	-16.56004000
79.99999542	0.00000000	-14.46850000
80.19999541	0.00000000	-9.78100300
80.39999540	0.00000000	-3.41412400
80.59999539	0.00000000	3.36491100
80.79999537	0.00000000	9.27657400
80.99999536	0.00000000	12.59227000
81.19999535	0.00000000	12.22933000
81.39999534	0.00000000	8.40920300
81.59999533	0.00000000	2.49753900
81.79999531	0.00000000	-4.73056000
81.99999530	0.00000000	-11.50960000
82.19999529	0.00000000	-16.60925000
82.39999528	0.00000000	-19.15600000
82.59999527	0.00000000	-18.28863000
82.79999525	0.00000000	-14.46850000
82.99999524	0.00000000	-8.09547100
83.19999523	0.00000000	-0.51058070
83.39999522	0.00000000	6.26845500
83.59999521	0.00000000	10.95595000
83.79999520	0.00000000	12.68455000
83.99999518	0.00000000	11.41117000
84.19999517	0.00000000	7.59104300
84.39999516	0.00000000	1.63016700
84.59999515	0.00000000	-5.19192900
84.79999514	0.00000000	-11.97096000
84.99999512	0.00000000	-17.42126000
85.19999511	0.00000000	-19.56201000
85.39999510	0.00000000	-18.33784000
85.59999509	0.00000000	-14.46850000
85.79999508	0.00000000	-8.09547100
85.99999506	0.00000000	-0.51058070
86.19999505	0.00000000	6.31766700
86.39999504	0.00000000	11.41117000
86.59999503	0.00000000	13.90871000
86.79999502	0.00000000	12.63533000
86.99999501	0.00000000	8.04626000
87.19999499	0.00000000	1.63016700
87.39999498	0.00000000	-5.60408400
87.59999497	0.00000000	-12.78297000
87.79999496	0.00000000	-17.83341000
87.99999495	0.00000000	-19.56201000
88.19999493	0.00000000	-17.88263000
88.39999492	0.00000000	-13.24434000
88.59999491	0.00000000	-6.87746000
88.79999490	0.00000000	-0.04921259
88.99999489	0.00000000	6.31766700
89.19999487	0.00000000	10.90674000
89.39999486	0.00000000	12.22933000
89.59999485	0.00000000	10.14395000
89.79999484	0.00000000	5.91166300
89.99999483	0.00000000	-0.04921259
90.19999482	0.00000000	-6.41609200
90.39999480	0.00000000	-11.92175000
90.59999479	0.00000000	-15.69267000
90.79999478	0.00000000	-16.15404000
90.99999477	0.00000000	-13.65650000
91.19999476	0.00000000	-9.42421200
91.39999474	0.00000000	-3.92470400
91.59999473	0.00000000	1.16879900
91.79999472	0.00000000	4.99507900
91.99999471	0.00000000	7.12967500
92.19999470	0.00000000	6.72982200
92.39999468	0.00000000	4.63213500
92.59999467	0.00000000	1.21801200
92.79999466	0.00000000	-2.95275600
92.99999465	0.00000000	-6.36687900
93.19999464	0.00000000	-8.55684000
93.39999463	0.00000000	-9.83021600
93.59999461	0.00000000	-9.78100300
93.79999460	0.00000000	-8.14468500
93.99999459	0.00000000	-5.60408400
94.19999458	0.00000000	-3.05118100
94.39999457	0.00000000	-0.51058070
94.59999455	0.00000000	1.16879900
94.79999454	0.00000000	1.67938000
94.99999453	0.00000000	1.67938000
95.19999452	0.00000000	1.21801200
95.39999451	0.00000000	-0.04921259
95.59999449	0.00000000	-1.72859200
95.79999448	0.00000000	-3.41412400
95.99999447	0.00000000	-4.68134800
96.19999446	0.00000000	-5.14271600
96.39999445	0.00000000	-5.19192900
96.59999444	0.00000000	-5.19192900
96.79999442	0.00000000	-5.14271600
96.99999441	0.00000000	-4.73056000
97.19999440	0.00000000	-3.87549200
97.39999439	0.00000000	-3.05118100
97.59999438	0.00000000	-2.18996000
97.79999436	0.00000000	-1.77780500
97.99999435	0.00000000	-1.72859200
98.19999434	0.00000000	-1.72859200
98.39999433	0.00000000	-1.77780500
98.59999432	0.00000000	-2.18996000
98.79999430	0.00000000	-3.00196800
98.99999429	0.00000000	-3.46333600
99.19999428	0.00000000	-3.92470400
99.39999427	0.00000000	-4.73056000
99.59999426	0.00000000	-5.14271600
99.79999425	0.00000000	-5.14271600
99.99999423	0.00000000	-4.68134800
100.19999422	0.00000000	-3.46333600
100.39999421	0.00000000	-2.18996000
100.59999420	0.00000000	-1.31643700
100.79999419	0.00000000	-0.46136810
100.99999417	0.00000000	-0.09842519
101.19999416	0.00000000	-0.46136810
101.39999415	0.00000000	-1.31643700
101.59999414	0.00000000	-2.18996000
101.79999413	0.00000000	-3.46333600
101.99999411	0.00000000	-4.68134800
102.19999410	0.00000000	-5.14271600
102.39999409	0.00000000	-5.19192900
102.59999408	0.00000000	-5.14271600
102.79999407	0.00000000	-4.68134800
102.99999406	0.00000000	-3.41412400
103.19999404	0.00000000	-1.77780500
103.39999403	0.00000000	-0.51058070
103.59999402	0.00000000	-0.04921259
103.79999401	0.00000000	-0.04921259
103.99999400	0.00000000	-0.51058070
104.19999398	0.00000000	-1.77780500
104.39999397	0.00000000	-3.41412400
104.59999396	0.00000000	-4.68134800
104.79999395	0.00000000	-5.14271600
104.99999394	0.00000000	-5.14271600
105.19999392	0.00000000	-4.73056000
105.39999391	0.00000000	-3.87549200
105.59999390	0.00000000	-3.05118100
105.79999389	0.00000000	-2.14074800
105.99999388	0.00000000	-1.31643700
106.19999387	0.00000000	-0.46136810
106.39999385	0.00000000	-0.09842519
106.59999384	0.00000000	-0.51058070
106.79999383	0.00000000	-1.77780500
106.99999382	0.00000000	-3.41412400
107.19999381	0.00000000	-4.68134800
107.39999379	0.00000000	-5.14271600
107.59999378	0.00000000	-5.19192900
107.79999377	0.00000000	-5.14271600
107.99999376	0.00000000	-4.68134800
108.19999375	0.00000000	-3.41412400
108.39999374	0.00000000	-1.77780500
108.59999372	0.00000000	-0.51058070
108.79999371	0.00000000	-0.04921259
108.99999370	0.00000000	-0.04921259
