Time	Channel A	Channel B
(us)	(V)	(mV)

-4.59999956	0.00000000	4.73056000
-4.39999957	0.00000000	4.37992100
-4.19999958	0.00000000	4.73056000
-3.99999959	0.00000000	4.68134800
-3.79999960	0.00000000	3.92470400
-3.59999962	0.00000000	3.56176100
-3.39999963	0.00000000	3.87549200
-3.19999964	0.00000000	4.32455700
-2.99999965	0.00000000	4.33070900
-2.79999966	0.00000000	4.77977300
-2.59999968	0.00000000	5.14271600
-2.39999969	0.00000000	5.19192900
-2.19999970	0.00000000	5.19192900
-1.99999971	0.00000000	5.19192900
-1.79999972	0.00000000	5.14271600
-1.59999973	0.00000000	4.77977300
-1.39999975	0.00000000	4.33070900
-1.19999976	0.00000000	4.32455700
-0.99999977	0.00000000	3.87549200
-0.79999978	0.00000000	3.51254900
-0.59999979	0.00000000	3.46333600
-0.39999981	0.35125490	3.46333600
-0.19999982	0.70250980	3.46333600
0.00000017	0.87844490	3.46333600
0.20000016	1.05376500	3.46333600
0.40000015	0.70250980	3.46333600
0.60000013	0.17531990	3.46333600
0.80000012	-0.70250980	3.46333600
1.00000011	-1.75689000	3.51254900
1.20000010	-2.45940000	3.92470400
1.40000009	-2.81127000	4.73056000
1.60000008	-2.28408000	5.14271600
1.80000006	-1.05376500	5.19192900
2.00000005	0.87844490	5.19192900
2.20000004	2.98659000	5.14271600
2.40000003	4.74409400	4.73056000
2.60000002	5.27128500	3.92470400
2.80000000	4.56816000	3.51254900
2.99999999	2.45940000	3.46333600
3.19999998	-0.70250980	3.46333600
3.39999997	-4.21690500	3.51254900
3.59999996	-6.85223900	3.92470400
3.79999994	-8.08255400	4.73056000
3.99999993	-7.20410900	5.14271600
4.19999992	-4.39283900	5.19192900
4.39999991	-0.17531990	5.19192900
4.59999990	4.21690500	5.14271600
4.79999989	7.73129900	4.73056000
4.99999987	9.31225400	3.92470400
5.19999986	8.78567900	3.51254900
5.39999985	5.79847400	3.46333600
5.59999984	1.40563500	3.46333600
5.79999983	-3.33846000	3.51254900
5.99999981	-7.20410900	3.87549200
6.19999980	-9.31225400	4.32455700
6.39999979	-8.96099900	4.33070900
6.59999978	-6.50098400	4.73056000
6.79999977	-2.45940000	4.73056000
6.99999975	1.93282500	4.37992100
7.19999974	5.44660400	4.73056000
7.39999973	7.55536400	4.68134800
7.59999972	7.37942900	3.92470400
7.79999971	5.62254000	3.51254900
7.99999970	2.63533500	3.46333600
8.19999968	-0.70250980	3.51254900
8.39999967	-3.33846000	3.92470400
8.59999966	-4.91941500	4.73056000
8.79999965	-5.09534900	5.14271600
8.99999964	-4.04096900	5.19192900
9.19999962	-2.10814500	5.19192900
9.39999961	-0.17531990	5.19192900
9.59999960	1.58095500	5.14271600
9.79999959	2.28408000	4.73056000
9.99999958	2.45940000	3.92470400
10.19999956	1.93282500	3.51254900
10.39999955	1.05376500	3.51254900
10.59999954	0.17531990	3.87549200
10.79999953	-0.52657480	4.27534400
10.99999952	-0.87844490	3.87549200
11.19999951	-1.05376500	3.56176100
11.39999949	-0.87844490	3.92470400
11.59999948	-0.52657480	4.73056000
11.79999947	-0.17531990	5.09350300
11.99999946	0.00000000	4.77977300
12.19999945	0.00000000	4.33070900
12.39999943	0.00000000	4.32455700
12.59999942	-0.17531990	3.87549200
12.79999941	-0.17531990	3.56176100
12.99999940	-0.17531990	3.87549200
13.19999939	-0.17531990	4.27534400
13.39999937	0.00000000	3.87549200
13.59999936	0.00000000	3.56176100
13.79999935	0.00000000	3.92470400
13.99999934	0.00000000	4.73056000
14.19999933	0.00000000	5.09350300
14.39999932	0.00000000	4.77977300
14.59999930	0.00000000	4.37992100
14.79999929	0.00000000	4.73056000
14.99999928	0.00000000	4.68134800
15.19999927	0.00000000	3.92470400
15.39999926	0.00000000	3.56176100
15.59999924	0.00000000	3.87549200
15.79999923	0.00000000	4.22613100
15.99999922	0.00000000	3.51254900
16.19999921	0.00000000	3.10654500
16.39999920	0.00000000	3.86318900
16.59999919	0.00000000	3.82627900
16.79999917	0.00000000	3.56176100
16.99999916	0.00000000	3.87549200
17.19999915	0.00000000	4.27534400
17.39999914	0.00000000	3.87549200
17.59999913	0.00000000	3.56176100
17.79999911	0.00000000	3.92470400
17.99999910	0.00000000	4.68134800
18.19999909	0.00000000	4.73056000
18.39999908	0.00000000	4.37992100
18.59999907	0.00000000	4.77977300
18.79999905	0.00000000	5.14271600
18.99999904	0.00000000	5.14271600
19.19999903	0.00000000	4.73056000
19.39999902	0.00000000	3.92470400
19.59999901	0.00000000	3.56176100
19.79999900	0.00000000	3.87549200
19.99999898	0.00000000	4.32455700
20.19999897	0.00000000	4.28149600
20.39999896	0.00000000	4.37376900
20.59999895	0.00000000	4.33070900
20.79999894	0.00000000	4.77977300
20.99999892	0.00000000	5.14271600
21.19999891	0.00000000	5.19192900
21.39999890	0.00000000	5.19192900
21.59999889	0.00000000	5.19192900
21.79999888	0.00000000	5.19192900
21.99999886	0.00000000	5.14271600
22.19999885	0.00000000	4.73056000
22.39999884	0.00000000	3.92470400
22.59999883	0.00000000	3.51254900
22.79999882	0.00000000	3.46333600
22.99999881	0.00000000	3.46333600
23.19999879	0.00000000	3.46333600
23.39999878	0.00000000	3.46333600
23.59999877	0.00000000	3.46333600
23.79999876	0.00000000	3.46333600
23.99999875	0.00000000	3.51254900
24.19999873	0.00000000	3.97391700
24.39999872	0.00000000	5.19192900
24.59999871	0.00000000	6.46530500
24.79999870	0.00000000	7.33882900
24.99999869	0.00000000	8.14468500
25.19999867	0.00000000	8.09547100
25.39999866	0.00000000	6.82824800
25.59999865	0.00000000	4.73056000
25.79999864	0.00000000	2.14074800
25.99999863	0.00000000	-0.41215550
26.19999862	0.00000000	-2.95275600
26.39999860	0.00000000	-4.53371000
26.59999859	0.00000000	-4.07849400
26.79999858	0.00000000	-1.07037400
26.99999857	0.00000000	4.02313000
27.19999856	0.00000000	10.39001000
27.39999854	0.00000000	16.70768000
27.59999853	0.00000000	21.29675000
27.79999852	0.00000000	22.47170000
27.99999851	0.00000000	19.05758000
28.19999850	0.00000000	11.41117000
28.39999848	0.00000000	1.21801200
28.59999847	0.00000000	-9.78100300
28.79999846	0.00000000	-19.00837000
28.99999845	0.00000000	-23.59129000
29.19999844	0.00000000	-21.86270000
29.39999843	0.00000000	-13.71186000
29.59999841	0.00000000	-0.15378940
29.79999840	0.00000000	16.35089000
29.99999839	0.00000000	31.48991000
30.19999838	0.00000000	41.62770000
30.39999837	0.00000000	43.67002000
30.59999835	0.00000000	36.84178000
30.79999834	0.00000000	21.96112000
30.99999833	0.00000000	1.63016700
31.19999832	0.00000000	-19.46973000
31.39999831	0.00000000	-36.38041000
31.59999829	0.00000000	-44.74655000
31.79999828	0.00000000	-42.19365000
31.99999827	0.00000000	-28.59252000
32.19999826	0.00000000	-6.98203700
32.39999825	0.00000000	18.39321000
32.59999824	0.00000000	41.57849000
32.79999822	0.00000000	56.45915000
32.99999821	0.00000000	60.23622000
33.19999820	0.00000000	52.07308000
33.39999819	0.00000000	32.15428000
33.59999818	0.00000000	5.19192900
33.79999816	0.00000000	-21.91191000
33.99999815	0.00000000	-43.06102000
34.19999814	0.00000000	-53.65403000
34.39999813	0.00000000	-51.11343000
34.59999812	0.00000000	-36.33120000
34.79999810	0.00000000	-12.59227000
34.99999809	0.00000000	14.92987000
35.19999808	0.00000000	40.30511000
35.39999807	0.00000000	57.57874000
35.59999806	0.00000000	62.26624000
35.79999805	0.00000000	53.45103000
35.99999803	0.00000000	34.03051000
36.19999802	0.00000000	8.60605200
36.39999801	0.00000000	-17.17520000
36.59999800	0.00000000	-37.45694000
36.79999799	0.00000000	-47.18872000
36.99999797	0.00000000	-44.33440000
37.19999796	0.00000000	-30.41954000
37.39999795	0.00000000	-9.32578700
37.59999794	0.00000000	13.90871000
37.79999793	0.00000000	33.37229000
37.99999791	0.00000000	44.84498000
38.19999790	0.00000000	46.16756000
38.39999789	0.00000000	37.35236000
38.59999788	0.00000000	21.39518000
38.79999787	0.00000000	2.79896600
38.99999786	0.00000000	-13.66265000
39.19999784	0.00000000	-24.25566000
39.39999783	0.00000000	-26.44562000
39.59999782	0.00000000	-20.68774000
39.79999781	0.00000000	-9.73179100
39.99999780	0.00000000	3.31569900
40.19999778	0.00000000	15.13287000
40.39999777	0.00000000	22.37328000
40.59999776	0.00000000	24.15108000
40.79999775	0.00000000	20.78617000
40.99999774	0.00000000	13.29355000
41.19999772	0.00000000	4.52755900
41.39999771	0.00000000	-2.25147600
41.59999770	0.00000000	-5.71481200
41.79999769	0.00000000	-5.81323800
41.99999768	0.00000000	-3.26648600
42.19999767	0.00000000	0.86737200
42.39999765	0.00000000	5.49950700
42.59999764	0.00000000	8.40920300
42.79999763	0.00000000	9.36884800
42.99999762	0.00000000	8.50762700
43.19999761	0.00000000	6.51451700
43.39999759	0.00000000	4.42913300
43.59999758	0.00000000	3.56176100
43.79999757	0.00000000	3.51254900
43.99999756	0.00000000	3.97391700
44.19999755	0.00000000	5.19192900
44.39999753	0.00000000	6.36687900
44.59999752	0.00000000	6.36687900
44.79999751	0.00000000	5.09350300
44.99999750	0.00000000	3.00196800
45.19999749	0.00000000	0.51058070
45.39999748	0.00000000	-1.11958700
45.59999746	0.00000000	-1.11958700
45.79999745	0.00000000	0.55979330
45.99999744	0.00000000	3.56176100
46.19999743	0.00000000	7.33882900
46.39999742	0.00000000	11.10359000
46.59999740	0.00000000	13.14591000
46.79999739	0.00000000	12.73991000
46.99999738	0.00000000	9.78100300
47.19999737	0.00000000	5.19192900
47.39999736	0.00000000	0.55979330
47.59999734	0.00000000	-2.85433100
47.79999733	0.00000000	-4.58292300
47.99999732	0.00000000	-4.53371000
48.19999731	0.00000000	-2.39911400
48.39999730	0.00000000	1.77780500
48.59999729	0.00000000	6.41609200
48.79999727	0.00000000	10.24237000
48.99999726	0.00000000	12.78912000
49.19999725	0.00000000	13.24434000
49.39999724	0.00000000	11.97096000
49.59999723	0.00000000	9.41806000
49.79999721	0.00000000	5.65329700
49.99999720	0.00000000	2.28838600
50.19999719	0.00000000	0.04921259
50.39999718	0.00000000	-1.63016700
50.59999717	0.00000000	-2.44217500
50.79999715	0.00000000	-1.63016700
50.99999714	0.00000000	0.04921259
51.19999713	0.00000000	2.18996000
51.39999712	0.00000000	4.77977300
51.59999711	0.00000000	7.33882900
51.79999710	0.00000000	9.83021600
51.99999708	0.00000000	11.05438000
52.19999707	0.00000000	10.29158000
52.39999706	0.00000000	8.65526600
52.59999705	0.00000000	6.87746000
52.79999704	0.00000000	4.73056000
52.99999702	0.00000000	2.18996000
53.19999701	0.00000000	0.09842519
53.39999700	0.00000000	-1.16879900
53.59999699	0.00000000	-1.16879900
53.79999698	0.00000000	0.09842519
53.99999696	0.00000000	2.23917300
54.19999695	0.00000000	5.19192900
54.39999694	0.00000000	8.09547100
54.59999693	0.00000000	9.83021600
54.79999692	0.00000000	10.24237000
54.99999691	0.00000000	9.37500000
55.19999689	0.00000000	6.87746000
55.39999688	0.00000000	3.97391700
55.59999687	0.00000000	1.77780500
55.79999686	0.00000000	0.09842519
55.99999685	0.00000000	-0.71358260
56.19999683	0.00000000	0.14763780
56.39999682	0.00000000	2.23917300
56.59999681	0.00000000	5.19192900
56.79999680	0.00000000	8.09547100
56.99999679	0.00000000	9.83021600
57.19999677	0.00000000	10.24237000
57.39999676	0.00000000	9.37500000
57.59999675	0.00000000	6.82824800
57.79999674	0.00000000	3.51254900
57.99999673	0.00000000	0.55979330
58.19999672	0.00000000	-1.16879900
58.39999670	0.00000000	-1.58095500
58.59999669	0.00000000	-0.71358260
58.79999668	0.00000000	1.82701800
58.99999667	0.00000000	5.19192900
59.19999666	0.00000000	8.55684000
59.39999664	0.00000000	11.15280000
59.59999663	0.00000000	12.38312000
59.79999662	0.00000000	12.32775000
59.99999661	0.00000000	9.73179100
60.19999660	0.00000000	5.24114100
60.39999658	0.00000000	1.01501000
60.59999657	0.00000000	-1.58095500
60.79999656	0.00000000	-2.90354300
60.99999655	0.00000000	-2.85433100
61.19999654	0.00000000	-1.12573800
61.39999653	0.00000000	2.23917300
61.59999651	0.00000000	6.41609200
61.79999650	0.00000000	9.78100300
61.99999649	0.00000000	11.50960000
62.19999648	0.00000000	11.50960000
62.39999647	0.00000000	9.83021600
62.59999645	0.00000000	6.92667200
62.79999644	0.00000000	3.97391700
62.99999643	0.00000000	1.77780500
63.19999642	0.00000000	0.09842519
63.39999641	0.00000000	-0.76279520
63.59999639	0.00000000	-0.36294290
63.79999638	0.00000000	0.46136810
63.99999637	0.00000000	1.77780500
64.19999636	0.00000000	3.46333600
64.39999635	0.00000000	5.19192900
64.59999634	0.00000000	6.87746000
64.79999632	0.00000000	8.19389700
64.99999631	0.00000000	9.06742000
65.19999630	0.00000000	9.87942800
65.39999629	0.00000000	9.83021600
65.59999628	0.00000000	8.60605200
65.79999626	0.00000000	6.87746000
65.99999625	0.00000000	4.68134800
66.19999624	0.00000000	1.72859200
66.39999623	0.00000000	-1.22416300
66.59999622	0.00000000	-3.31569900
66.79999620	0.00000000	-4.12770700
66.99999619	0.00000000	-2.80511800
67.19999618	0.00000000	0.55979330
67.39999617	0.00000000	5.19192900
67.59999616	0.00000000	9.83021600
67.79999615	0.00000000	13.24434000
67.99999613	0.00000000	14.92372000
68.19999612	0.00000000	14.46850000
68.39999611	0.00000000	11.50960000
68.59999610	0.00000000	6.82824800
68.79999609	0.00000000	1.32258800
68.99999607	0.00000000	-4.12770700
69.19999606	0.00000000	-7.49261800
69.39999605	0.00000000	-7.99704600
69.59999604	0.00000000	-6.26845500
69.79999603	0.00000000	-2.39911400
69.99999601	0.00000000	3.51254900
70.19999600	0.00000000	9.78100300
70.39999599	0.00000000	14.46850000
70.59999598	0.00000000	16.65846000
70.79999597	0.00000000	16.65846000
70.99999596	0.00000000	14.46850000
71.19999594	0.00000000	9.83021600
71.39999593	0.00000000	3.97391700
71.59999592	0.00000000	-1.16879900
71.79999591	0.00000000	-4.99507900
71.99999590	0.00000000	-7.08046200
72.19999588	0.00000000	-6.21924200
72.39999587	0.00000000	-2.90354300
72.59999586	0.00000000	1.77780500
72.79999585	0.00000000	6.87746000
72.99999584	0.00000000	11.50960000
73.19999582	0.00000000	14.46850000
73.39999581	0.00000000	14.92372000
73.59999580	0.00000000	13.24434000
73.79999579	0.00000000	9.83021600
73.99999578	0.00000000	5.19192900
74.19999577	0.00000000	0.51058070
74.39999575	0.00000000	-3.31569900
74.59999574	0.00000000	-5.81323800
74.79999573	0.00000000	-5.76402500
74.99999572	0.00000000	-2.85433100
75.19999571	0.00000000	1.77780500
75.39999569	0.00000000	6.87746000
75.59999568	0.00000000	11.50960000
75.79999567	0.00000000	14.46850000
75.99999566	0.00000000	14.87451000
76.19999565	0.00000000	12.73376000
76.39999563	0.00000000	8.09547100
76.59999562	0.00000000	2.23917300
76.79999561	0.00000000	-2.80511800
76.99999560	0.00000000	-5.81323800
77.19999559	0.00000000	-6.21924200
77.39999558	0.00000000	-4.12770700
77.59999556	0.00000000	0.14763780
77.79999555	0.00000000	5.65329700
77.99999554	0.00000000	11.55881000
78.19999553	0.00000000	16.14788000
78.39999552	0.00000000	17.83341000
78.59999550	0.00000000	16.14788000
78.79999549	0.00000000	11.50960000
78.99999548	0.00000000	5.14271600
79.19999547	0.00000000	-1.58095500
79.39999546	0.00000000	-7.08046200
79.59999544	0.00000000	-9.58415200
79.79999543	0.00000000	-8.76599300
79.99999542	0.00000000	-4.49065000
80.19999541	0.00000000	2.23917300
80.39999540	0.00000000	9.83021600
80.59999539	0.00000000	16.15404000
80.79999537	0.00000000	19.61737000
80.99999536	0.00000000	20.02337000
81.19999535	0.00000000	17.42126000
81.39999534	0.00000000	11.46038000
81.59999533	0.00000000	3.51254900
81.79999531	0.00000000	-4.17691900
81.99999530	0.00000000	-10.04552000
82.19999529	0.00000000	-12.98597000
82.39999528	0.00000000	-11.31275000
82.59999527	0.00000000	-6.31766700
82.79999525	0.00000000	0.51058070
82.99999524	0.00000000	8.14468500
83.19999523	0.00000000	14.92372000
83.39999522	0.00000000	19.56201000
83.59999521	0.00000000	20.83538000
83.79999520	0.00000000	18.33784000
83.99999518	0.00000000	13.29355000
84.19999517	0.00000000	6.87746000
84.39999516	0.00000000	0.09842519
84.59999515	0.00000000	-5.86245000
84.79999514	0.00000000	-9.63336600
84.99999512	0.00000000	-10.49459000
85.19999511	0.00000000	-7.99704600
85.39999510	0.00000000	-3.31569900
85.59999509	0.00000000	2.65132900
85.79999508	0.00000000	9.41806000
85.99999506	0.00000000	14.92372000
86.19999505	0.00000000	18.33784000
86.39999504	0.00000000	19.15600000
86.59999503	0.00000000	16.65846000
86.79999502	0.00000000	12.02018000
86.99999501	0.00000000	6.46530500
87.19999499	0.00000000	0.46136810
87.39999498	0.00000000	-4.99507900
87.59999497	0.00000000	-8.81520600
87.79999496	0.00000000	-9.63336600
87.99999495	0.00000000	-7.59104300
88.19999493	0.00000000	-3.31569900
88.39999492	0.00000000	2.18996000
88.59999491	0.00000000	8.14468500
88.79999490	0.00000000	13.19513000
88.99999489	0.00000000	16.20325000
89.19999487	0.00000000	16.60925000
89.39999486	0.00000000	14.51772000
89.59999485	0.00000000	10.29158000
89.79999484	0.00000000	5.19192900
89.99999483	0.00000000	0.09842519
90.19999482	0.00000000	-4.12770700
90.39999480	0.00000000	-6.26845500
90.59999479	0.00000000	-6.26845500
90.79999478	0.00000000	-4.17691900
90.99999477	0.00000000	-0.36294290
91.19999476	0.00000000	3.87549200
91.39999474	0.00000000	8.14468500
91.59999473	0.00000000	11.50960000
91.79999472	0.00000000	13.19513000
91.99999471	0.00000000	12.78912000
92.19999470	0.00000000	10.29158000
92.39999468	0.00000000	6.97588500
92.59999467	0.00000000	3.92470400
92.79999466	0.00000000	1.37180100
92.99999465	0.00000000	-0.71358260
93.19999464	0.00000000	-1.11958700
93.39999463	0.00000000	0.00000000
93.59999461	0.00000000	1.31643700
93.79999460	0.00000000	2.64517700
93.99999459	0.00000000	4.73056000
94.19999458	0.00000000	6.41609200
94.39999457	0.00000000	7.33882900
94.59999455	0.00000000	8.14468500
94.79999454	0.00000000	8.09547100
94.99999453	0.00000000	6.92667200
95.19999452	0.00000000	5.65329700
95.39999451	0.00000000	4.77977300
95.59999449	0.00000000	3.92470400
95.79999448	0.00000000	3.51254900
95.99999447	0.00000000	3.46333600
96.19999446	0.00000000	3.46333600
96.39999445	0.00000000	3.46333600
96.59999444	0.00000000	3.46333600
96.79999442	0.00000000	3.46333600
96.99999441	0.00000000	3.51254900
97.19999440	0.00000000	3.92470400
97.39999439	0.00000000	4.77977300
97.59999438	0.00000000	5.60408400
97.79999436	0.00000000	6.46530500
97.99999435	0.00000000	6.82824800
98.19999434	0.00000000	6.46530500
98.39999433	0.00000000	5.65329700
98.59999432	0.00000000	5.19192900
98.79999430	0.00000000	4.73056000
98.99999429	0.00000000	3.87549200
99.19999428	0.00000000	3.05118100
99.39999427	0.00000000	2.23917300
99.59999426	0.00000000	2.23917300
99.79999425	0.00000000	3.00196800
99.99999423	0.00000000	3.46333600
100.19999422	0.00000000	3.97391700
100.39999421	0.00000000	5.19192900
100.59999420	0.00000000	6.41609200
100.79999419	0.00000000	6.87746000
100.99999417	0.00000000	6.87746000
101.19999416	0.00000000	6.46530500
101.39999415	0.00000000	5.60408400
101.59999414	0.00000000	4.73056000
101.79999413	0.00000000	3.46333600
101.99999411	0.00000000	2.28838600
102.19999410	0.00000000	2.18996000
102.39999409	0.00000000	2.58981300
102.59999408	0.00000000	2.65132900
102.79999407	0.00000000	3.51254900
102.99999406	0.00000000	4.73056000
103.19999404	0.00000000	5.60408400
103.39999403	0.00000000	6.46530500
103.59999402	0.00000000	6.87746000
103.79999401	0.00000000	6.87746000
103.99999400	0.00000000	6.41609200
104.19999398	0.00000000	5.19192900
104.39999397	0.00000000	3.92470400
104.59999396	0.00000000	3.05118100
104.79999395	0.00000000	2.18996000
104.99999394	0.00000000	1.82701800
105.19999392	0.00000000	2.18996000
105.39999391	0.00000000	3.05118100
105.59999390	0.00000000	3.92470400
105.79999389	0.00000000	5.19192900
105.99999388	0.00000000	6.41609200
106.19999387	0.00000000	6.87746000
106.39999385	0.00000000	6.87746000
106.59999384	0.00000000	6.41609200
106.79999383	0.00000000	5.14271600
106.99999382	0.00000000	3.51254900
107.19999381	0.00000000	2.23917300
107.39999379	0.00000000	1.77780500
107.59999378	0.00000000	1.77780500
107.79999377	0.00000000	2.23917300
107.99999376	0.00000000	3.51254900
108.19999375	0.00000000	5.19192900
108.39999374	0.00000000	6.87746000
108.59999372	0.00000000	8.14468500
108.79999371	0.00000000	8.55684000
108.99999370	0.00000000	8.14468500
109.19999369	0.00000000	6.82824800
109.39999368	0.00000000	4.77977300
109.59999366	0.00000000	2.74360200
109.79999365	0.00000000	2.18996000
109.99999364	0.00000000	2.13459600
110.19999363	0.00000000	1.37795300
110.39999362	0.00000000	1.87623000
110.59999360	0.00000000	3.51254900
110.79999359	0.00000000	5.60408400
110.99999358	0.00000000	7.68946800
